"tsId","class","lempel_ziv","aproximation_entropy","sample_entropy","permutation_entropy","shannon_entropy_CS","shannon_entropy_SG","spectral_entropy","nforbiden","kurtosis","skewness","x_acf1","x_acf10","diff1_acf1","diff1_acf10","diff2_acf1","diff2_acf10","x_pacf5","diff1x_pacf5","diff2x_pacf5","entropy","nonlinearity","hurst","stability","lumpiness","unitroot_kpss","unitroot_pp","trend","spike","linearity","curvature","e_acf1","e_acf10","max_level_shift","time_level_shift","max_var_shift","time_var_shift"
"1","-1",0.274373437530048,0.390156260354806,0.54351836560761,0.949129132317689,7.86911165377651,6.53290388512444,3.37772304014256,0.911111111111111,-0.802312820973987,-0.315107000810446,0.97468939113935,5.53659883471777,0.52383491192698,0.40130914338036,0.0250595703717797,0.539917443729941,1.57216887914676,0.73130093644142,0.682947906353661,0.56017778696771,0.220952428226053,0.996779266340432,1.0531445634021,0.0287729091221233,0.725142695936624,-4.17912336036891,0.97520806430785,4.54474034952434e-07,3.39999257478555,5.22751856047838,0.509671845828937,0.435707896326757,1.29778042432352,41,0.313783195854422,35
"2","1",0.68593359382512,0.520896821476433,0.576729684126666,1.02134143531842,7.86611554163894,0.683051013865614,4.11698498201574,0.884722222222222,-0.352374134809596,-0.0367406329276014,0.8189423827684,2.66163016433633,-0.137793078172908,0.208505796790501,-0.452588211622937,0.65122273138979,0.787887095330108,0.186626182626445,0.573969867848478,0.694092659122824,0.398542733686207,0.986685859318142,0.709024926061327,0.0312733120249461,0.557373076878599,-16.1801418610081,0.825367060287606,1.2094685604114e-05,2.71654552490285,-2.67858387022483,0.0865467256495262,0.0990537779332118,1.31345866256171,24,0.465824466180683,30
"3","-1",0.274373437530048,0.397685000294093,0.542392606452789,0.900475624603023,7.97825869561625,8.7743468645931,3.19975379163728,0.926388888888889,-0.850026361591848,-0.582204898884499,0.981228659306894,5.97032668553544,0.618989945054951,0.514714401472812,0.136685140465725,0.504651987759548,1.61093335959391,0.654099391783346,0.413163307835566,0.544246698525437,0.301446831976271,0.997089344896309,1.03927382157902,0.0249645484132756,0.765958581255639,-3.34361692462592,0.982921455090974,1.47265725490404e-07,3.71722168687605,4.55527984475339,0.523145587566664,0.471829007655294,1.31822220362948,39,0.364608780845659,33
"4","-1",0.274373437530048,0.340106547884434,0.540600960422943,0.919634047497947,8.98102991064556,3.72354948246081,3.47108208069949,0.920833333333333,-0.482854603637706,-0.163519966355302,0.958908900076484,4.83625118941995,0.198376509585609,0.18599732455259,-0.184491490047445,0.539713253078059,1.28200062627564,0.227647626949342,0.481614818312209,0.55904936265141,1.03957981108849,0.996616099257601,0.865867151493836,0.0239102041807194,0.537221718135571,-4.27259257710333,0.967566698109703,8.96552324140207e-07,1.546910093464,7.14666877328558,0.250560952846248,0.233747580310424,1.28829132376907,43,0.301637385514112,46
"5","1",0.480153515677584,0.563995327311938,0.640091510022315,0.970993152359361,8.40287770426401,4.81848436324662,3.86612803349252,0.905555555555556,0.73877457751913,0.0317702355677167,0.92062777139323,3.47913671276859,0.316648822561669,0.325861689614684,-0.0976573272337032,0.304574288925899,1.03326355216522,0.276024260202998,0.380659670584858,0.605733555138183,0.759020858295441,0.994440484840014,0.89570105146692,0.18464642623262,0.285209226489121,-8.36572769626238,0.904561072069946,1.68699386412776e-05,1.28678741661074,1.52999880685833,0.414899538449526,0.71351150117667,1.39866543474966,31,0.587869325301988,36
"6","1",0.68593359382512,0.577918925377167,0.667696955146408,1.02312192184188,8.97292221470461,11.0491700392341,3.95460087897848,0.883333333333333,-0.501607518447152,-0.609888554201734,0.879021043811986,4.43078295364655,-0.206601910596817,0.198401368135806,-0.513885277423141,0.468248238962693,0.871890373343834,0.162030064670936,0.611456687307276,0.626167463174716,0.694442192271797,0.991322839272729,0.889495437457759,0.155653750618236,0.795476942355399,-9.02843747193435,0.87793590892716,1.43262242587267e-05,4.04250613082846,1.18708673901185,0.0918904390504137,0.197256338463964,1.49643409340579,28,0.506099886128166,25
"7","-1",0.274373437530048,0.472082632265544,0.577290315624212,0.931453109713767,7.76346765047467,1.41869538143607,3.56544647806252,0.911111111111111,0.129445560019296,0.276294791013397,0.963578230614252,4.37460860738308,0.444235211124355,0.359924537841819,-0.0130841398876298,0.917412283927352,1.55211781431136,0.527239805289389,0.736470088830836,0.568513535663915,0.0479753505039349,0.996618601567723,1.00262000297931,0.111402939178983,0.502512419932399,-5.386410523771,0.969950542434754,4.27381990076824e-07,1.67469177424701,5.96382555902115,0.483604688590043,0.476835233464756,1.22079906881216,42,0.282680056456954,47
"8","-1",0.34296679691256,0.415219874181667,0.602515611556551,0.98112109924824,9.44906553878765,7.1091815929699,3.56624879646328,0.902777777777778,0.530671727058275,-0.26779247422455,0.965715623482493,4.39733873131901,0.485480543922795,0.359391653869534,-0.131239071783364,0.328176589704756,1.41043145503025,0.429234723674179,0.377765039253569,0.572907195894404,0.242518411257481,0.996341566866118,0.988354138449637,0.104733290409323,0.428138580650911,-6.02196641106526,0.965950848729613,9.53936342053985e-07,1.86181522354328,3.50519569200135,0.557338822783663,0.576430177950444,1.33076720849238,34,0.435259428599023,29
"9","1",0.617340234442608,0.556189037355949,0.639970958476385,1.0228738568423,8.99825694262312,7.00949882917515,3.92872781645701,0.8875,-0.396347767782631,-0.416828972912639,0.918863442787172,4.12334321504087,0.141088356858096,0.172111139508129,-0.387306660867648,0.25721662212345,0.959361479798837,0.142134491471744,0.341109443547812,0.593151400684946,0.411895479800913,0.993926053673177,0.864128791583383,0.345685446790744,0.636295249712706,-8.62296255014822,0.90148009699205,1.42000008303756e-05,3.45102667172436,0.0290174841812183,0.330730075727693,0.574473953301603,1.36194378275304,30,0.576805564646253,34
"10","1",0.411560156295072,0.401567006016469,0.581466190652252,0.948220157579678,9.54573336015754,4.19871213719131,3.73598657654455,0.911111111111111,0.333406847666709,-0.163958681923186,0.939231561934188,3.83919743144782,0.151640478029586,0.157576603767088,-0.291004475480175,0.315957134761277,1.11149857205594,0.0745397052638541,0.31877064283918,0.603719099664649,0.592555235312555,0.996059618810284,1.00306835348492,0.0772580201032193,0.259459583065054,-6.569657271881,0.947466946247105,2.11257871763362e-06,0.582564608906254,2.30073968331312,0.240967381161316,0.364762619935978,1.54384136312676,28,0.6117050954157,35
"11","1",0.480153515677584,0.464764348368147,0.617421312725576,0.916692997448503,9.4947040726338,8.29263204546129,3.48977644224518,0.916666666666667,0.216387123956143,-0.58206480120183,0.966516748385444,4.58216152592841,0.502944556996892,0.354367993651514,-0.0832027778543429,0.491911396578102,1.58782509025061,0.643957792364332,0.602447797319537,0.569511910247516,0.315322964660536,0.996330838722546,0.974907765424681,0.098781927058439,0.438386541491695,-5.91491381759676,0.965087678721542,1.44044012513194e-06,1.95756467326756,3.34353603075794,0.564792146062854,0.62564178362488,1.54992794172141,35,0.549188344797388,32
"12","1",0.411560156295072,0.467802628518033,0.593648540768416,0.934688603020829,9.25440297711433,10.2584930142318,3.47400956979336,0.897222222222222,-0.303886244060146,-0.594753108534251,0.972786864915546,5.4591345117323,0.416218267266827,0.264369195814043,-0.175088550042654,0.504285492097841,1.3283483352527,0.427242633653287,0.528396916819363,0.554452691501999,0.28916623377741,0.996638589317945,1.03387916670583,0.0409284204818361,0.623993932472159,-4.40217955060842,0.97347812810779,5.54444561041282e-07,2.99353830000764,3.74662674396156,0.46759977841946,0.366542354013704,1.30486014962397,35,0.368253163750423,40
"13","1",0.548746875060096,0.452088102287579,0.628583288768168,1.00236116958338,9.35740918395663,4.77495465766459,3.7500011781454,0.893055555555556,0.946743247724419,0.363957292072747,0.93468450035673,3.936869565981,0.478517354445397,0.482733166499437,-0.13573977706663,0.249864960719356,1.13031021917335,0.434842837280984,0.13041141312043,0.55968915305111,0.440917594035171,0.994049879620591,0.688380860157016,0.0183127365144415,1.64745589378339,-10.2159572001365,0.918058291402474,9.44410243230926e-06,7.13319469935748,-1.15244217384953,0.532153844831191,0.614332657844578,1.38287427610645,22,0.432378688354286,4
"14","1",0.411560156295072,0.646220346828388,0.632265383677471,0.999143797326095,8.19995943565214,-0.122671201401501,3.9482950971899,0.894444444444444,1.49760538239545,0.517785884404558,0.903172705269316,3.0149540449498,0.137750521474313,0.236068319610439,-0.32438191187646,0.428835200121079,1.03523516594632,0.277340696382069,0.328157316944613,0.623448246325658,0.424894314481295,0.993945346373807,0.819073894221146,0.336856601910745,0.203053778398186,-10.1382512329111,0.86805515631021,2.92186210178065e-05,-0.371465931525018,0.982319529600128,0.313769149396961,0.505179126030088,1.38780485385826,5,0.573218707317066,10
"15","-1",0.411560156295072,0.518476928347932,0.602412100386857,0.931646043486726,7.93206026336278,1.63648338187742,3.37968193504904,0.911111111111111,-0.123509697117443,0.0596694513019115,0.976394641494311,5.34089545508769,0.577910544269063,0.524213814078309,0.227447834155576,1.01962050689031,1.92487108096301,0.863871706406034,0.910486968441012,0.567060535650111,0.0802010787713821,0.996849679523148,1.01537421299503,0.0324761323233648,0.484946738180732,-4.06103825660842,0.977162728258442,1.95051364684266e-07,0.0527523239821249,7.12089458269001,0.487948999780323,0.610105674839267,1.13162747644501,50,0.241724038356356,42
"16","1",0.411560156295072,0.332712452386712,0.567574465387785,0.933494063539306,8.56440700291244,-1.76194923941187,3.89991995393408,0.916666666666667,1.54844377069824,0.507754742575159,0.920470669721433,3.25795035517648,0.0892928579414074,0.105517889390155,-0.31767489794806,0.26674625500908,1.0995273137049,0.0603895415408489,0.259476595901711,0.598514912732397,0.549757083161191,0.995874013300427,0.932084060032028,0.146995441302594,0.207144527964596,-7.74953365286838,0.936081823743071,6.1671539968368e-06,-0.97702221900157,2.04611306516688,0.312199094950284,0.400596675321917,1.49544494403566,28,0.559029003217351,26
"17","1",0.480153515677584,0.537225086924343,0.637901913585037,0.993907455691433,8.14784548359869,2.47332335933463,3.95938874574384,0.893055555555556,0.726987478978074,0.0896640817142433,0.904544171934347,3.32960818767174,0.0719770792073814,0.193538276714469,-0.393578434300669,0.426282358128073,0.987557878667222,0.200504867328618,0.339648257465311,0.608430672202963,0.577589876445929,0.993578149547062,0.827527337709911,0.378668692084516,0.301040419223098,-10.0649257393153,0.895423223975514,1.83690467992281e-05,1.31830011403052,0.608044326583098,0.209171126813441,0.357951952359029,1.48263190804341,29,0.659759922188718,25
"18","1",0.411560156295072,0.589253287091065,0.636101211008072,0.930984060269519,7.8086421533573,0.756844615308096,3.91708013517026,0.908333333333333,0.902403314166854,0.321962644059963,0.910776330595929,3.23546586120723,0.215924205733272,0.23970652715783,-0.22898300358898,0.261484056546618,1.09532299809742,0.302795387730677,0.268703961411733,0.626690184044829,0.307773404183655,0.994015110430139,0.830057380588602,0.261106884148739,0.215865698288966,-9.67693973670982,0.879940635970712,2.11768390304959e-05,-0.109223534514058,1.15494672782893,0.314007951678049,0.558609956658951,1.41394640116566,29,0.540420406926215,26
"19","-1",0.274373437530048,0.35674148293807,0.588438386621836,0.909853398723525,9.13954358347319,5.63834836863312,3.5652219405546,0.906944444444444,-0.786211127257913,-0.0511452119382903,0.961511482572,4.21173289240131,0.456856345237931,0.330523704983975,-0.0739239594507338,0.519087844105973,1.43795340509007,0.471523286204922,0.524587952974163,0.56737002753232,0.359233667912983,0.996320206475311,0.813552701618205,0.0509218950523364,0.980634628715139,-6.15053860550008,0.968110051539579,6.95264783317789e-07,4.84855846171511,3.70536545143857,0.506163665343734,0.485651383305131,1.52033512457404,2,0.766120340717949,3
"20","-1",0.411560156295072,0.458895542545502,0.603529887457073,0.942602306770365,8.40644476860486,3.77718842464236,3.32936407126394,0.895833333333333,-0.466447720519429,-0.127368164401086,0.973933278232646,5.12195862661357,0.551888746662821,0.394251779383655,0.0602741389354206,0.672573088785232,1.63138290676999,0.89343894551132,0.933629869278057,0.557624541990333,0.157425779442174,0.996791639642938,1.02541670711913,0.0422338151457228,0.634319753665644,-4.28193458027609,0.975181886431685,2.85185594622482e-07,2.70987646530018,6.16484028362661,0.540398489173197,0.409712877789819,1.16969805636193,38,0.258449445007132,35
"21","1",0.274373437530048,0.597603595630087,0.61479680298375,0.978510131813838,8.44372248074867,7.64015820370983,3.54878830175074,0.898611111111111,-0.487464793664676,-0.364866064490018,0.964059404319668,5.34677874071894,0.404317934813962,0.262623099315118,-0.132648199629024,0.562330099050837,1.55518165098563,0.545772722527524,0.550893072539528,0.559683286164137,0.510829257048525,0.995934690622109,0.932149499474956,0.0302006950608873,1.52400322341151,-5.46159921505634,0.966162414891203,1.31432439668205e-06,6.72192330383003,-1.40507328021217,0.421327221164433,0.277261018697077,1.42297220312784,24,0.44981561300602,30
"22","1",0.411560156295072,0.273435165807007,0.562345605433917,0.927955334732509,9.34674615306585,14.6199529332044,3.73892572453545,0.905555555555556,-0.571956515298184,-0.800032693492353,0.947895225929472,5.08884537882246,0.131772403748329,0.212222383235953,-0.309374014129028,0.525319476228449,1.07678913969545,0.347967638769249,0.451897421557952,0.56572264334344,0.957741889661293,0.995526355033665,0.950297161043552,0.0956517893720044,0.91533365990667,-5.20834515847527,0.941704335558192,3.66921568079341e-06,4.78694987203278,2.09826694040855,0.213826915069603,0.432515423064892,1.60387461018411,27,0.640269954866967,26
"23","1",0.617340234442608,0.62088133576484,0.628266315874476,1.0156941691594,8.57771211741332,-0.517485414436223,4.01168808167446,0.894444444444444,1.69762597833205,0.424193442770868,0.879781832723529,2.73028104837997,0.108475973869551,0.176365501588304,-0.388111291108823,0.393087352595087,0.902172976301752,0.174342984156934,0.45823995402305,0.653862111631559,0.493224112514947,0.992090093794492,0.785648102257033,0.629442078697934,0.298180606077266,-12.735098087884,0.843366623109538,3.26019379259724e-05,1.42333522488793,1.16246804658566,0.405250834995809,0.398729476654929,1.46699323776578,29,0.638067393998247,27
"24","-1",0.68593359382512,0.270582930402378,0.60448865301282,0.919436065423412,9.74402655971163,-1.52668660697177,3.87003482137881,0.913888888888889,0.237514122879668,-0.109132074148452,0.924342482450792,3.14566527593676,0.10093084007215,0.158541763544203,-0.312027618081354,0.223740299899029,0.945029483926509,0.059816033231478,0.248390095262491,0.599045289993514,0.481300674261112,0.995289389118789,0.94899421296964,0.173192621036909,0.170362745258627,-7.80239124552694,0.930737326481071,6.00461143696414e-06,0.694493149798292,-0.70639692465495,0.203088583660613,0.31035547730035,1.8202089852746,2,1.36331457994473,7
"25","1",0.617340234442608,0.266564414244473,0.589887104156289,0.893406560550893,9.33485801912437,6.79522194561574,3.80365248988298,0.915277777777778,0.383962700752762,-0.326754235677276,0.932413791692483,3.77733259309163,0.385064508295909,0.442118225831387,0.00271267035028117,0.250565812636342,1.27058385149943,0.489109447967697,0.345646808038374,0.599695876975542,0.759664611035088,0.994790336339114,0.899338089515402,0.201377467955776,0.355931825563226,-7.78147057645143,0.907655647897298,1.40107291376471e-05,1.80720097937267,1.18833120834406,0.415914843954709,0.846034197813275,1.5166930737385,29,0.679920502249058,26
"26","1",0.34296679691256,0.579000898797317,0.681336674968487,0.997403524467143,10.2609902804826,13.7787858317641,3.75230498802407,0.893055555555556,0.488218733480616,-0.838155560976073,0.943103115963345,4.33594237262399,0.154912807725942,0.214849999420286,-0.458078086786121,0.740890080683808,1.10626371069374,0.288720479953195,0.509748603327413,0.573520565583507,0.503048912472945,0.995141276601775,0.847176481733363,0.0195825812000258,1.04538962884176,-7.69297494077516,0.944556236799267,3.19375107216035e-06,5.30100027750415,-0.589128848913328,0.362417651354957,0.3120634558696,1.53960475865768,21,0.645130925397181,19
"27","1",0.274373437530048,0.205990726271585,0.53117113672601,0.879849043994391,11.3617103672538,11.8423868292811,3.52787793274614,0.920833333333333,0.531907698835565,-0.739126333374459,0.957572576238485,4.33457092176135,0.445206296206122,0.377537931940377,0.0668562379348317,0.265634448857412,1.28807772938664,0.353722553237682,0.270129442287464,0.586473903756885,0.479449017265532,0.996395838117092,0.950675284186887,0.096469064709941,0.342764876499046,-5.66439330533543,0.954993875525502,2.49440369384163e-06,1.43883378981854,2.66116761695414,0.366173000497334,0.603954440809366,1.50930703558224,26,0.52861755879952,25
"28","-1",0.274373437530048,0.513672807013017,0.613966462702353,0.914770571970085,7.82490604607858,-2.73569322222383,3.55703258117832,0.911111111111111,1.10145969281686,0.845916006216411,0.958183830665531,3.80570652891726,0.513860601332781,0.354420561605123,0.131252271417971,0.61284474191336,1.9121933644919,0.535949890441714,0.796756761283335,0.602490434642063,0.173695328979853,0.996016115413377,0.578974798773875,0.00976814343101097,0.962768051210909,-6.01076679101379,0.958687770158565,8.97541100096525e-07,4.65057951109673,6.20218131187425,0.534614148093081,0.406081908573975,1.11782473701098,2,0.376263708862836,7
"29","1",0.411560156295072,0.730637551405393,0.680447113685216,0.993106143478316,9.53949844402442,14.8990528823969,3.70596723834711,0.8875,0.315554160983589,-1.21087082029926,0.913387262249568,5.14016380499532,-0.21877072151727,0.620093601519708,-0.436712032158469,0.781156279008333,1.10836654302762,0.568083675722926,1.195882931399,0.617857924403301,0.375881197908548,0.993723409046747,0.957088912211172,0.0842114059763068,0.864809165491801,-5.23222744596174,0.930381815188515,1.36637149324942e-06,4.56340062357561,0.42394971587027,-0.0864583784158494,0.599685808119269,1.7381001737862,29,0.832117183200553,35
"30","1",0.617340234442608,0.413724400970679,0.641707180436763,0.973350688111785,8.71109272559115,4.99350677729636,3.89674450217141,0.9,0.0509801858789669,-0.19994958835044,0.921676240273758,3.65341243277393,0.319120719107814,0.304173290879733,-0.0806140280615744,0.278804246052834,1.14477642157939,0.352289727111826,0.268742077739057,0.605331204217575,0.332453289929544,0.994204487659204,0.850711962252366,0.296867925474182,0.362484874301642,-9.42525663355835,0.896539128465074,1.56132984299312e-05,1.81393655058573,0.834336444827442,0.392963601359135,0.59777816771769,1.49034171410206,29,0.724874423504624,26
"31","1",0.68593359382512,0.64426898415154,0.644872623491252,1.00414588719842,9.10412046704511,4.65553320216071,3.95437998786666,0.894444444444444,0.037201544624502,-0.158914284347324,0.896657779239934,3.55255984242279,0.25204025914758,0.303358178170745,-0.194204253641165,0.17066568950491,1.00511223226621,0.226080990458862,0.293746979805693,0.62485381149932,0.549441044639608,0.992563542002149,0.838484879107801,0.342017464761796,0.480242204315887,-10.8661247084297,0.859689107382042,2.6873676361709e-05,2.66097205792075,-0.095879513908381,0.394709091603767,0.69311721864059,1.59442630388395,28,0.728600237115641,35
"32","1",0.480153515677584,0.5489046005714,0.63703104175563,0.987605768359873,8.44344164400543,1.00196847638621,3.93628401011432,0.9,1.2827105957574,0.41397153529599,0.897308211681887,3.05778810976778,0.115231624909832,0.297312597730138,-0.317445821583267,0.480276602219985,1.0587349577481,0.289737130004168,0.37983067572065,0.620527385133596,0.361750269707372,0.993342638154079,0.813918789161362,0.44734316019596,0.23668896120067,-10.6529561255194,0.880335768716296,2.52875309678308e-05,0.49228223160812,0.739880569045348,0.239612131601879,0.491612097132106,1.31628440406757,30,0.468946872304316,26
"33","1",0.34296679691256,0.390247912608793,0.576536592369425,0.91084251367568,9.2543011607772,3.64940224014683,3.77574921024085,0.915277777777778,1.04294143137688,0.109169007026436,0.938699642538703,3.59470873167507,0.256585228913718,0.215498373607378,-0.0801914422896661,0.200503646201816,1.18064871734096,0.178179516100804,0.204240344844301,0.585874338923753,0.672737498281327,0.995741171081995,0.957958183451573,0.133989626586704,0.233728762370612,-6.45272596209428,0.930990823234146,6.32767073061306e-06,0.438757779940172,1.82844621779272,0.26562691380917,0.380614891950697,1.60060968271463,26,0.638316504744972,25
"34","1",0.548746875060096,0.423862643670046,0.634365970614746,0.939111062614841,10.3775670488146,7.98951056985958,3.87848734327775,0.908333333333333,0.701985954217843,-0.13505640704416,0.923710943647997,3.62871394138169,0.297689181886517,0.282483544350337,-0.221984353553079,0.280129306455926,1.07072607913513,0.249740756655057,0.385550704440332,0.600991404175859,0.828938736883249,0.994227435622829,0.854357147053552,0.331180684309538,0.418797071378673,-9.45467800158784,0.902958225833973,2.23187452043345e-05,2.45826552035825,0.962038393179551,0.456338934483225,0.673942452047769,1.41387841866379,31,0.678535992733365,26
"35","1",0.548746875060096,0.587963774128247,0.633665844385212,0.961650418828904,9.09005872592229,-0.241125956083956,3.92033204383926,0.904166666666667,2.64800917024469,0.726839187762805,0.905482450250181,2.90056968703153,0.283728809881723,0.29515506953435,-0.235082517884738,0.267418267795403,1.06601066183521,0.2681800960165,0.371447595194181,0.626005581279452,0.509924859950988,0.993628511602933,0.802050845981137,0.470936470876436,0.210238746524731,-11.1415793604687,0.878910199042092,3.02492490781545e-05,-0.0450147354579113,1.3563831534929,0.458769808134375,0.636097976673785,1.24729155704634,27,0.418739016165591,28
"36","-1",0.480153515677584,0.306368917408689,0.520935238636273,0.8690835425285,8.73824023094078,5.3450249517615,3.56260953418092,0.919444444444444,-0.324929396749746,-0.435338129327649,0.935952993450148,3.38679000510126,0.470968141746838,0.389281689178265,-0.185382236920117,0.236474224269725,1.01829795712524,0.313384069519231,0.277395044374469,0.549291771234688,0.835150309896114,0.99630641023959,0.802405645129449,0.580784299518389,0.471580357782516,-7.497900700533,0.972098688888983,1.72601297079581e-06,3.10072736827846,-0.227441741393597,0.406589652162146,0.350663678116843,1.63357424297722,21,0.785277081925893,27
"37","1",0.480153515677584,0.581365633469777,0.635877079833341,0.9675243841494,8.30731366075318,3.09075086089145,3.94522472351647,0.898611111111111,-0.147412297959574,-0.100818399707951,0.894884873253833,2.74892291870203,0.247135329315032,0.173778380078758,-0.139862447637309,0.152527412915972,0.963283238243954,0.154489863757656,0.197076216317281,0.61877334698365,0.310975349933351,0.99273611937737,0.693505981006496,0.0956046760896737,0.641380815177619,-12.5018994421991,0.879805095287717,1.16510861225126e-05,3.54091639541614,-1.02059664700359,0.313289353952077,0.272455228005423,1.4516143473124,23,0.483124384747311,29
"38","1",0.34296679691256,0.346336642709379,0.575040475570232,0.893082880891871,8.53845347207312,2.87666459874567,3.78258176083795,0.920833333333333,1.43404538410568,0.269455086374119,0.936307578323461,3.52827851977006,0.369178516200746,0.378622704028603,0.0861546398321541,0.184991597298878,1.318249098393,0.409806123802313,0.143289537471065,0.593471899777096,0.666755629501925,0.995415967858049,0.932898239286224,0.140611618010782,0.234971377549353,-7.43889430695795,0.913111046507272,1.41708781070763e-05,-0.0627461367979909,2.41716548638954,0.302904368394065,0.601395654890692,1.51579103887385,29,0.581792825431383,27
"39","1",0.480153515677584,0.352031035577592,0.506715260628005,0.928788180747478,7.97883071655926,1.18087955150446,3.58262898346285,0.915277777777778,-1.06139870944092,-0.098952748700318,0.968096099668297,5.76113527107028,0.504933347987382,0.345194428465254,0.0748486228218625,0.372756583797749,1.2121670227777,0.410242900915179,0.33535670023854,0.516571408288599,0.210562091231164,0.996972962510488,0.967131115649019,0.0635245828645738,1.03098305474775,-4.44970855774926,0.983177269827754,1.84760974672694e-07,4.452611832679,5.59646303252892,0.322586300131758,0.366448268759392,1.13546319866055,41,0.285402342386317,78
"40","1",0.617340234442608,0.554289439232883,0.658264652942635,0.995680426644617,9.59059719208945,6.95807670052412,3.94969954116364,0.897222222222222,0.682122919707604,-0.0989833707296782,0.901762489207414,3.44051350596003,0.26156604944104,0.307864727940491,-0.171244363813553,0.234795148470056,0.980652415580978,0.221087567880274,0.310301136759131,0.617419663856065,0.707320723852073,0.993131007186076,0.844387034390962,0.3540845943432,0.42439690366698,-10.0122707593678,0.870349051604478,2.85546338453013e-05,2.42956410478787,0.962845844261009,0.403434887016304,0.664271585642727,1.52406666027481,32,0.739094118304507,34
"41","1",0.411560156295072,0.393925664780643,0.569060372310681,0.954147017137777,9.57821606944859,7.54080866850538,3.42655874893086,0.908333333333333,-0.114430996789913,-0.245562611561499,0.972291293628678,4.96051106149366,0.464817924263354,0.354985376898825,-0.124833195705987,0.625720516399449,1.57159967239033,0.619193790311212,0.702831481116462,0.562102895738252,0.0757512571009203,0.996690393723755,1.02621250225639,0.0525593647382934,0.511212308488276,-4.74174157077297,0.975941752422605,2.77019653502427e-07,2.04942824010732,4.87357595847951,0.506576050750736,0.457687959477646,1.27780186915325,34,0.368225219806373,42
"42","1",0.480153515677584,0.404896182702914,0.575829825631583,0.928469012359377,7.21084026051696,2.53322309977732,3.57298612937845,0.908333333333333,-1.1765506188442,-0.282325903859397,0.968300020543455,5.03462546775857,0.573339134761887,0.409832643595752,0.0155936875307192,0.130898952499909,1.51548953775061,0.379915013219405,0.14590014819059,0.539235874027394,0.238272464864513,0.996564135538043,1.01988905311648,0.0217010275186574,0.63549645199938,-4.61859522622651,0.977092976968625,3.04079828193441e-07,2.79324594956253,3.99790802002916,0.476158773736325,0.379511480540204,1.40630164420938,43,0.62542187890263,78
"43","1",0.411560156295072,0.646991260878627,0.677841451322957,1.04147287160785,9.90630025753973,11.1170077263508,3.89316448436615,0.8875,-0.0987252263677143,-0.461327354662459,0.904363212429122,4.08486801469003,-0.0501452901951093,0.240339365114185,-0.456317184699084,0.59203870317427,1.00335911934079,0.220802855095489,0.477250755442369,0.602828708281601,0.741156119565366,0.993267560548775,0.871517109889876,0.241393176458969,0.64848043390719,-8.89111005653757,0.887745819106631,1.89932967636579e-05,3.46095951778105,1.19495815614935,0.184534302856311,0.330359769550245,1.56477574029218,29,0.627242046918263,34
"44","-1",0.411560156295072,0.326728408094636,0.588863380850732,0.897823603323626,7.89455594086139,4.97885245392733,3.17525066694543,0.918055555555556,-0.760737234376779,-0.303576630440237,0.981073065982417,5.66668443322701,0.632939032647573,0.666171294913826,0.156245079656995,0.71616714178512,2.19543434766423,0.792993408389681,0.809369496262903,0.552332237788997,0.175686086085248,0.997036276998736,1.0596232411387,0.015742739930108,0.630638166514388,-3.7981965444754,0.983514923394224,1.38525277548847e-07,2.59409147751435,5.99997113223231,0.60322443674478,0.728992021362643,1.19350227065851,46,0.215283575455072,36
"45","-1",0.411560156295072,0.540285313240061,0.674114173840298,1.01545361973009,9.24924822806322,15.2536438935131,3.75911924299179,0.888888888888889,0.114223909043527,-1.02455697392971,0.946854025827692,5.00589317591459,-0.0666867919380901,0.0502543749582504,-0.57840463480226,0.42560375105409,0.921695434056147,0.0192660275506526,0.489718656911001,0.559732538206422,0.746263626060421,0.995587310271983,0.958526662431411,0.155235671361827,0.979935927263369,-5.22373696442716,0.954408132628066,1.9826253521912e-06,5.0861622074659,-0.138750669554242,0.0996154362318931,0.112286299232386,1.4304488060386,21,0.479884199076895,2
"46","1",0.480153515677584,0.573787022364497,0.622339521027285,0.957467708167109,7.81816907495328,2.18720701703401,3.86698992067675,0.905555555555556,0.310303830390469,-0.0335010265026618,0.923201302593019,3.69238877956582,0.194440715205845,0.189476895321231,-0.294890932666679,0.27702218217018,0.987206349803812,0.17672647060909,0.434836375094549,0.620290521513461,0.764455105215859,0.994521299657436,0.878834753038166,0.158736400797226,0.245344196291624,-8.46053263776095,0.910934845164857,1.33247621593841e-05,0.742398433973731,1.08876414185971,0.38920547102206,0.57628913293203,1.57861273186565,5,0.791889450747637,11
"47","-1",0.548746875060096,0.310313813929169,0.608621616287557,0.959714239298611,9.31794112977683,-2.67705487150603,3.85229905280355,0.911111111111111,1.96669365996409,0.457643695194718,0.91840167192791,2.94114041526753,0.261683682702088,0.319455080507343,-0.0022065138673805,0.222342583129265,1.18380935918248,0.213663324275794,0.185521806825379,0.617198914379525,0.610167362672709,0.995088876860502,0.950519486188532,0.141839846117083,0.170402991333146,-7.99429758753723,0.910017099091275,1.1025809091224e-05,-0.483207651791116,2.23356898605658,0.252950396316673,0.500667031482701,1.53565262581427,24,0.532741367751542,21
"48","-1",0.480153515677584,0.296859550967209,0.56661168967861,0.926968874349431,9.09178255895932,-5.75826417033915,3.69870994705081,0.909722222222222,0.411909932265174,0.775056846903222,0.94132065732735,3.47543721205104,0.296177347823105,0.265482269451085,0.0114160337787088,0.430755011475074,1.52993431508687,0.253953593290812,0.363129574062084,0.586112309007418,0.374475669636074,0.995793254101648,0.624897259101182,0.0662220674031014,0.57795816875569,-7.63082684152854,0.946037690045384,1.99111316043486e-06,2.06788292762584,7.38402964565473,0.414377815448592,0.494197847001168,1.03511769912247,41,0.327842513673147,40
"49","1",0.34296679691256,0.329166489067409,0.593159834136693,0.879044612431208,8.92602969534639,4.25999739664673,3.738173397502,0.922222222222222,1.24316351460448,-0.0670699704555245,0.932777019450079,3.59162388061175,0.398500915985179,0.447158126897005,0.25577826931032,0.357323367261146,1.59379136378031,0.484070481044692,0.356191938880927,0.58848972979461,0.873359602767971,0.99518553723332,0.934541687180892,0.157212643582952,0.257612461626567,-7.33320693906818,0.904749264539278,1.68287036409133e-05,0.54455776438945,1.84945646786865,0.389720776460143,0.629853563632932,1.50494565719665,29,0.584502756982617,27
"50","-1",0.34296679691256,0.470635230771199,0.668414376105886,1.02304676457592,11.9993335547811,11.5786644978793,3.97391907281222,0.890277777777778,0.73724612164643,-0.430653371508883,0.902797020705337,3.2562504088026,-0.0444582363477855,0.245392406460364,-0.473357698165806,0.528440193670474,0.946405550391876,0.201942444494138,0.43286872406238,0.602636747036295,0.896254181446536,0.993571386638383,0.928490291379671,0.207947307197913,0.475575105578977,-10.0582216930998,0.894801076940179,1.47793221154829e-05,3.08794637323346,1.57703136596171,0.0900186821009313,0.367992250411027,1.56398167808978,3,0.826125391659003,8
"51","1",0.480153515677584,0.489667910360516,0.621791898165889,0.965676701356644,10.2206136034382,6.10452718519245,3.76415220806575,0.902777777777778,0.974377911121667,-0.155013739020623,0.935223174882435,3.83721622158927,0.14948687761662,0.115357903292454,-0.253536586531646,0.244063580868401,1.13475390077942,0.0739926962395752,0.250501819625622,0.586293214090703,0.52745525041563,0.996037415360623,0.956608802980498,0.0982738592495503,0.2681423895646,-6.64760842666806,0.944147323089848,4.21746421863313e-06,0.468553430628872,3.09381766052328,0.306746344245557,0.470103326751916,1.56477500142391,28,0.584729164937925,26
"52","1",0.411560156295072,0.473708759275567,0.616933558559651,0.981081095378123,8.97948615025414,7.47546268159787,3.56619252043455,0.902777777777778,-0.121725708203432,-0.529126500556683,0.963610545466426,4.89801353894173,0.317023148026987,0.253577700431125,-0.240881747586446,0.543077505883384,1.22771058484701,0.262379323954683,0.400623348876013,0.566779388489643,0.122136505821649,0.996664141593018,1.01240370808483,0.0431799584290135,0.36662449446171,-4.91708082210395,0.968699023600684,4.66188457036439e-07,1.18284110035515,3.06145755020485,0.383865461521844,0.53427981316325,1.52618738553784,32,0.567933013227159,29
"53","1",0.34296679691256,0.274027433799353,0.53089478717322,0.826152334205793,8.96069535424544,2.48803698147557,3.7375981389353,0.926388888888889,0.793828739589999,0.0780336880774924,0.940798893894722,3.70987710858662,0.20451101649333,0.21745158962952,-0.289688669722203,0.256066584945675,1.11743343940576,0.155762230089083,0.250896508088823,0.58654155187428,0.630241997190149,0.996477133707579,0.998743563387899,0.0830074322401642,0.235698142058006,-6.71124226113977,0.962725066264923,1.44621121147292e-06,0.191475101070538,2.61920063225723,0.281590300063819,0.480540338526348,1.53023454320654,27,0.536315406046396,26
"54","-1",0.205780078147536,0.395921573127838,0.564485028295116,0.88056692021827,6.75802108830326,3.22752098290242,3.3608836527891,0.930555555555556,-1.55708337880028,-0.263896855638534,0.980120733389931,7.20483115504934,0.405993023054975,0.417487452467755,0.340479712948514,0.745211368355168,1.22069596524714,0.518142723812481,1.02017523844286,0.510336622036542,0.167979771400058,0.997336032194196,1.02155420457611,0.0115066760109493,1.86279125001752,-1.23595143359262,0.982325830789158,3.29651646691855e-07,7.8423125621695,0.884490877973148,0.326793005552704,0.466805742028085,1.4033846212668,36,0.366015447367165,30
"55","1",0.34296679691256,0.489100485850922,0.629558030918337,0.948013319961527,8.85816879297783,5.76599055917633,3.78792835856895,0.911111111111111,0.699331938390254,-0.0860068881460568,0.944923110913089,3.74367998451588,0.387941793113554,0.307853687997034,-0.0856151224521811,0.222835553382028,1.09252471330116,0.319780209154357,0.347118349128705,0.591898875329403,0.652651428576934,0.99557752062947,0.930359979273377,0.132444832697683,0.269368622082891,-7.03269141596627,0.933325622283447,7.69499945156532e-06,1.03828547625121,1.60426040874044,0.452695349695937,0.650702488568579,1.50843823245324,25,0.581543203166821,27
"56","1",0.480153515677584,0.465763934524649,0.630217695278347,0.924795262712732,10.0897081402019,8.07755756078108,3.80754495639217,0.913888888888889,0.554937623436787,-0.198210508401514,0.935477846504273,3.8628213111432,0.383789273940234,0.378421476317799,-0.0122201038339824,0.323655669252691,1.20352370597093,0.388288194536503,0.340805554444782,0.587217118586538,0.740547457506634,0.994982886002834,0.922967384948415,0.171167192138323,0.385893284845587,-7.41244592619001,0.915585592230435,1.29299261162387e-05,1.98524202845794,1.80426849301726,0.440297862715524,0.737847250215312,1.41969798567417,31,0.618258815511083,27
"57","-1",0.411560156295072,0.544397625483558,0.620056347426865,0.992689983414689,8.42626436320622,2.96512371460062,3.67381821081181,0.894444444444444,-0.33756733383983,-0.328192829119798,0.9221412181879,3.384627480642,0.0865759808515977,0.212782191958248,-0.441440917108932,0.397583722474517,0.971656095468828,0.199723036898323,0.676360415891121,0.578399215975429,1.043375696494,0.995975403017439,0.84517906765583,0.310903614145539,0.382278920898231,-7.07326557913542,0.967292895209907,1.48996744967478e-06,2.57479970148078,0.214580878431841,0.062699575294919,0.151135846105183,1.70677475544341,22,0.814388500298722,18
"58","-1",0.411560156295072,0.48914282919635,0.615670149189314,0.914466770264661,7.62116252886992,5.1258985589286,3.4231577652678,0.915277777777778,-0.86970933093608,-0.302883071225883,0.973251513136036,5.56463124879055,0.52435492105618,0.381607480463498,0.129096279810216,0.806543716099271,1.63384268549445,0.782042325786952,0.812735354995452,0.573357854124606,0.232643339666685,0.99670981724915,1.0109204684276,0.0233192724967987,0.657060651802743,-4.19653237189075,0.971716271015693,3.76962459063622e-07,2.83137792421973,5.76342488903403,0.5034868738854,0.579843267571475,1.3554799121942,46,0.291915364244152,49
"59","1",0.411560156295072,0.293878174710809,0.592499752006252,0.967110512406169,9.92259283319803,9.00742582882855,3.70538024613473,0.902777777777778,0.193890975395116,-0.383208254270793,0.945580517567535,4.12268008571246,0.412736211422634,0.464745158325558,0.121795488415926,0.384664477113335,1.37748133282704,0.441588229416816,0.334561826376233,0.595982883074857,0.82877845602604,0.995562404438417,0.971330662587356,0.0815781799713571,0.370289183120894,-6.44884828757987,0.923621532311819,8.27459098250151e-06,1.66525876621215,2.31876056260511,0.319215272819385,0.688554318733245,1.48924426660634,29,0.515812419600852,27
"60","1",0.548746875060096,0.58354191321112,0.651058732542212,0.997376990966438,9.96854736480449,8.3764336084006,3.92901647770654,0.897222222222222,0.175688485078068,-0.336267684022078,0.905948821355901,3.82384717012804,-0.00608780177418415,0.192403684024006,-0.439714215516745,0.49881300914798,0.959375524096744,0.202031771184334,0.468606089048304,0.601081185860539,0.78163579450428,0.993575116497648,0.87227985602886,0.282257933637415,0.484131249981308,-8.95032147000705,0.900977429634642,2.03028649800301e-05,2.6464884476755,1.03033089381197,0.190101801234257,0.357162281637009,1.56971655255511,28,0.642900130875224,36
"61","1",0.411560156295072,0.452124317132923,0.621567128073237,0.987981359940544,8.33127233273225,-0.321282475649013,3.92604884904066,0.913888888888889,2.57882106869032,0.74978910353472,0.91310605009215,3.00370166800432,0.299732553838392,0.333497450068451,-0.245446190896418,0.269112830784595,1.07492363894391,0.256926126743055,0.332902570571474,0.626473966485012,0.704085254286927,0.994051763791954,0.823130032538785,0.407168666991401,0.206201644226272,-10.5892527808865,0.888644305328966,2.99115145929031e-05,-0.505624810071463,1.5371816569284,0.461922259101546,0.747571352669606,1.36091183396237,29,0.491255522773916,27
"62","-1",0.754526953207633,0.435524105142027,0.652724167240539,1.00655378144354,12.1430500864203,-1.16432486675639,4.0035861490174,0.8875,3.15748383567681,0.581036133540944,0.893504817422586,2.45123715132288,-0.0262786090187744,0.166328134492379,-0.442941071300121,0.430820047499295,0.901300401390747,0.128636314902372,0.337946981550705,0.624598739209801,0.514451589951045,0.994048913258631,0.870768053751789,0.368028650526047,0.167176843418686,-10.3781267131931,0.887865329363453,1.83861482254936e-05,0.463745374878179,2.22860392118596,0.114944371500539,0.25973233639776,1.41405484902131,19,0.488881973083697,8
"63","1",0.548746875060096,0.532199728970427,0.610706067152669,0.983584477608112,8.66564247868863,-0.276001515421141,3.63121525054164,0.913888888888889,2.01118941711203,0.826443117945756,0.948239509726126,3.75839560054344,0.50581575310362,0.567424378173607,0.0327719436832914,0.680145942061966,1.71039735615742,0.826422782145331,0.803501905406439,0.601677781822795,0.329450027371997,0.995545695889059,0.923041658035587,0.34449685995045,0.367071806948155,-8.26868836020513,0.939713677172372,5.43619559060813e-06,-0.596233068000874,5.28264315952672,0.594174601686006,0.773606775246792,1.3015939453844,43,0.314378900306948,39
"64","1",0.754526953207633,0.574343402698247,0.645092281984147,1.00107689037957,8.75503692279216,5.90126554075581,3.93411785475542,0.884722222222222,0.035130288324571,-0.245800824996241,0.908642977380087,3.77380922808402,0.192271717267619,0.20709477765015,-0.245997927210567,0.275790716324341,0.97671613177684,0.196302969195223,0.432651435374105,0.623130915807075,0.728695876927083,0.993422191251788,0.861419615256515,0.268457893180559,0.488726600766647,-9.37333998004723,0.88811242454304,2.06990210604887e-05,2.67964109410942,0.170360667722243,0.378518344119598,0.555874595470603,1.45865424038897,27,0.64293405112708,26
"65","1",0.411560156295072,0.416031699418649,0.588682022909909,0.983105763285849,9.20512709357919,12.0464757146924,3.71597659376184,0.893055555555556,-0.6724721340007,-0.652499532689955,0.952075583788817,5.3773071906051,0.281165929461752,0.264297996500606,-0.221056169723878,0.304915276238793,1.0682891362912,0.242531036600427,0.412507417811317,0.558418222389782,0.871297726491019,0.995519785696867,0.991460584135784,0.0761606570172108,0.834338291725234,-5.43208149486328,0.940802186107828,6.41230447611946e-06,4.293315697473,0.871750503452043,0.405678411453907,0.659363507639029,1.64096785430617,30,0.652651361230417,36
"66","-1",0.274373437530048,0.454102590221015,0.649154639298436,0.982069611193657,9.95440704148654,9.85837219969887,3.64393772708188,0.890277777777778,0.354406326965441,-0.362880617336784,0.956830773122376,4.82000907893676,0.292699247446986,0.228319534627138,-0.358241501389237,0.752547152510751,1.16782749959714,0.308163047908615,0.463447523962746,0.563085288901898,0.141196123379756,0.995507867941234,0.764761384963891,0.0223531881174613,1.49748980485805,-6.52191628058405,0.957712234437381,1.27449412089925e-06,6.88819074756134,-0.699936512761089,0.417982124269849,0.3242188934353,1.26526814886746,19,0.381447607629326,16
"67","1",0.411560156295072,0.417391558058346,0.658501459329594,0.969026461269309,9.15629917010826,12.5108701549687,3.79803460272798,0.898611111111111,-0.591810791142849,-0.66469156501875,0.936110953496004,4.7942349809682,0.214464515336038,0.22642767400413,-0.23616216477299,0.360283342001123,1.14474707608855,0.329625996746161,0.370045247445787,0.581672914214961,0.428161627119214,0.994785626914009,0.91932767219053,0.173008198797612,0.804567647948508,-6.78843108569099,0.92537620493034,8.87098130740564e-06,4.16148347079005,1.10170426934068,0.349143271665885,0.551274095100836,1.44518352776907,29,0.544359860738735,36
"68","1",0.34296679691256,0.313929170795789,0.648150555486854,0.944701473979213,10.8467947991163,16.821184435991,3.72134041498933,0.913888888888889,0.632069374116258,-1.10288595910656,0.949079834772465,4.15389024302985,0.382889707078831,0.342366718104931,-0.0652189657551051,0.263303106396053,1.22607129065941,0.384150208320255,0.343273415586671,0.598624819085787,0.948115266399224,0.995585770330256,0.936419448705474,0.148214217454108,0.475735861651706,-6.56548935090814,0.935870000096949,5.37113292238229e-06,2.83694625925396,1.02172633723087,0.401973148089483,0.732276255641006,1.5272165803691,23,0.532586598337166,33
"69","1",0.548746875060096,0.2939242505925,0.569897858546936,0.944848625363417,9.34750822365365,6.20646047942795,3.76868045543111,0.908333333333333,0.48431450908904,-0.306109681971525,0.938856515193844,3.92491060707406,0.322545658086223,0.279153688653075,0.0346243419309678,0.242176811335148,1.30107913691497,0.291966391904352,0.264644836909148,0.59153190018373,0.656534189786248,0.995572588863687,0.954292215224512,0.109847154499595,0.311056793462149,-6.58782902806617,0.925531911116263,7.55671042771466e-06,1.12904643460271,2.17596176703816,0.344578853508142,0.515501351069234,1.46569437768896,26,0.537282519931699,36
"70","1",0.411560156295072,0.431478867763195,0.595457151390813,0.951921317709283,8.71829781965213,1.33898648001424,3.78272225784507,0.9125,1.86466987233451,0.466407439792679,0.93872223429679,3.34678761047232,0.377742136483206,0.294760531009697,-0.138402884048454,0.183809756926467,1.19254363732837,0.419093197471437,0.194653920946424,0.588302488159625,0.374994076120835,0.995470307524198,0.915827248464037,0.218949694623719,0.226737253294336,-8.01650020204621,0.925029828592614,8.05998412456168e-06,-0.0730823644609864,2.48225844281029,0.411122964827444,0.614777770733779,1.51068369156507,29,0.615843899836202,36
"71","1",0.274373437530048,0.524162715475965,0.58142733345962,0.977077180787479,7.80930839702304,5.52182036782849,3.50894395731074,0.891666666666667,-0.943078052601287,-0.225520744384616,0.969331916048802,5.67133534830987,0.406961070083453,0.27652076983792,-0.170613464123238,0.420330242513523,1.34806729996244,0.412716078258203,0.422652863301594,0.543227597201769,0.732990030510222,0.996432444790142,1.0003919271249,0.0832656315044061,0.943185631203681,-4.45102745838487,0.969284058610158,1.48047527831125e-06,4.56597167540318,3.7521894927637,0.50928127357776,0.514902823725742,1.26072643576433,36,0.331924633517043,4
"72","1",0.617340234442608,0.583571649630703,0.628772331715634,1.00472619006,8.44015242714885,2.96601517903814,3.94497315305335,0.891666666666667,0.120252170529071,-0.125214140917245,0.893426436267529,3.29026944812553,0.122298095027876,0.237656037857942,-0.313476202126197,0.356188703929311,0.922218561540351,0.175074186897874,0.411552966750082,0.665506941751665,0.343061454391733,0.992998866433501,0.830527456197469,0.216093142111294,0.262074787607199,-10.2825388815889,0.872440861590637,1.60523092547327e-05,1.10623668407785,1.16772973901223,0.323110763377536,0.627062720884792,1.61584892831875,30,0.724752173068118,26
"73","-1",0.34296679691256,0.529286800704492,0.605100221183247,0.968583287754804,6.8328725325743,-0.237168174189928,3.74855532712532,0.904166666666667,-1.24979532772361,-0.0121780592327427,0.951709402200146,4.62287322171348,0.301330293579749,0.200338506777593,-0.0964330603386625,0.505108033073128,1.40405542990695,0.28972379272237,0.409227289296928,0.559614362583758,0.688566619469651,0.996016115413377,0.988451713910593,0.0234650301871809,0.645608567930369,-4.58482640498122,0.965083802053898,5.6199770317013e-07,2.84795074641147,3.67166997103593,0.238407553315133,0.205510803917883,1.21761421402519,44,0.796659404023886,78
"74","1",0.480153515677584,0.410725577955168,0.625995520075382,1.01041719927993,9.48850480646492,10.3090148415603,3.87979573543958,0.893055555555556,-0.481647686865454,-0.502829513230788,0.915926251003037,4.49079025020795,0.0838435751027026,0.374480095845656,-0.335185179368621,0.662381337424268,1.1726328734882,0.347850198108151,0.450577515086212,0.588739157336411,0.591208871597783,0.993633735877334,0.902780499615599,0.222013692485709,0.692210240455043,-8.66293933979009,0.906724288789448,1.63224078410356e-05,3.75526414237507,0.856864343476812,0.23761682634168,0.490732476415948,1.41203464305525,29,0.558746984404994,26
"75","1",0.480153515677584,0.453547082321939,0.632328219341835,0.980763746913537,8.18860592554734,5.67141502430583,3.78468307639967,0.898611111111111,0.14121349908052,-0.518368761622707,0.936353192004284,4.0972605288005,0.293322846213155,0.27651578599559,-0.0898239831829057,0.168877091681795,1.12908784275645,0.277499679504355,0.183380043896909,0.581540735608786,0.869286719161824,0.995047088087122,0.897479939242027,0.20549218260189,0.414790333763871,-7.13422368970555,0.908344641454572,1.61208503951072e-05,2.15531647479654,0.0772034819416647,0.394148965629767,0.584421789610699,1.57713846801784,30,0.811405779809803,25
"76","1",0.548746875060096,0.662231382849848,0.675938172203939,1.01751486934737,9.8979996489987,9.87392559848802,3.99824011203606,0.884722222222222,0.335083557992173,-0.270662587173305,0.878378317425508,3.39853787711664,0.0540153962424596,0.193064857617383,-0.377127092202571,0.431291194338533,0.830608182361124,0.136597923079735,0.506489359580039,0.638616553758277,0.649314919449027,0.991738114751951,0.818359888971674,0.391136693526672,0.628510672601161,-10.4934935234285,0.859433499107589,3.07965091900211e-05,3.59853413654288,1.18026597903176,0.302107151577885,0.457941051888551,1.47424997297548,26,0.484948352510032,18
"77","1",0.480153515677584,0.484686924909657,0.608474503919599,0.936291860111146,8.34063039841422,-1.01298131404164,3.9210140837531,0.905555555555556,2.61110087680106,0.806614898559136,0.911991745515464,2.78725964070494,0.346687929980059,0.328997059825939,-0.159474907319823,0.203192707836922,1.09733846057762,0.277684712811318,0.194894574958197,0.613341960705107,0.288788423715152,0.99413921565998,0.806607283027267,0.548847951459799,0.197769123704393,-10.3788249910614,0.881926573912921,2.62234452149306e-05,-0.641598004070476,1.09206221288359,0.425596907216793,0.661212224864104,1.41333978231312,29,0.627389739300923,26
"78","1",0.68593359382512,0.535661986737254,0.636776277568447,0.97949619731976,8.90421168731892,4.2554679892997,3.92714663253245,0.891666666666667,1.09828513567351,0.0810620728031915,0.906662385199792,3.293736276951,0.32100378945035,0.376540023223686,-0.182984402369116,0.281358796807423,1.06559016206888,0.288412715352702,0.30868691917128,0.61311157977409,0.701217828048677,0.993257543428332,0.82463648378305,0.454935143747092,0.373249992036567,-10.9462981244915,0.872154917683398,3.3369550845786e-05,2.06362052110844,0.458205000142563,0.447991340419223,0.778846948017211,1.39903846257887,31,0.646179251724093,24
"79","1",0.34296679691256,0.511157231128064,0.590547289105506,0.950878431916022,8.28983145752018,-1.13484469427,3.86794354214032,0.906944444444444,1.77361473808271,0.613746726846839,0.924220336882548,3.3500565174447,0.326908167293594,0.332194355827398,-0.135770890651453,0.271221079446448,1.10584115717117,0.311381546640278,0.382117691929583,0.623959816283927,0.658880063849322,0.99476561649079,0.862964811989957,0.214074208982351,0.2284785928594,-8.70400281213364,0.907119271774274,1.70250835861299e-05,-1.30661771770305,1.70975188228403,0.458294602124018,0.735528798538301,1.29615777428187,31,0.40148871939312,28
"80","1",0.274373437530048,0.366128929315627,0.567453735145544,0.869417167918182,7.8726383352992,5.78079300178816,3.36303883484408,0.920833333333333,-0.912806028855337,-0.405995605188769,0.977656530840843,5.77976352976152,0.488442364559062,0.375322663534945,-0.0873436675119101,0.453379564138797,1.60190290927526,0.536479411467284,0.497690272868082,0.534162308546433,0.254867152974975,0.996907886319264,1.0190108137026,0.0461109687542766,0.888446086323335,-3.68371075460673,0.980111353836671,2.67719326535947e-07,4.23266836546241,4.853844334026,0.509676079234301,0.562694280693245,1.17998714354396,36,0.286529050659422,31
"81","1",0.274373437530048,0.271768518665574,0.552219033465609,0.923420050594062,10.3580580237436,17.296894388881,3.58099973551525,0.9125,0.29437981247846,-1.05712358816333,0.953326347581886,4.44427794707508,0.275264126488908,0.205849846611938,-0.268697947412995,0.43545242052983,1.13445945315675,0.183347579250186,0.374781494032961,0.585636157280683,0.780286392927301,0.996276120067438,0.964872699679833,0.131989637150974,0.60779784160958,-5.4555302229751,0.960146557666693,1.23439295306952e-06,3.40681885978072,2.09772251202286,0.355154749451189,0.480293553793002,1.68641656269259,25,0.653529175500965,33
"82","1",0.617340234442608,0.721352731566628,0.623880425642217,1.02079445492577,8.29837089783221,0.832216598145202,4.01993120343918,0.883333333333333,0.314623170764537,-0.0131491628066752,0.880038043648463,3.0826921665412,-0.0996172367773584,0.223991251011822,-0.48087829923036,0.630866581014388,0.921046075606716,0.163253969445791,0.572249242687676,0.630227960131498,0.281129997193429,0.991958672673437,0.717348475220438,0.0163604311327002,0.667535529717859,-12.1882163131023,0.89393018130975,9.5654391210595e-06,3.90502073017149,-1.53354006598952,0.118179925257535,0.175683322442191,1.58779535229105,19,0.479161707997185,29
"83","1",0.617340234442608,0.586866450739575,0.640137018257355,1.01197075116801,8.37667291065048,0.136799732184683,3.91151628274806,0.895833333333333,2.01242038828394,0.549825398233011,0.916338705235434,2.96229300777089,0.265876297960743,0.211030816690925,-0.282077408148885,0.25458564933095,1.03151859377398,0.187162954322882,0.195492899274916,0.619533410511515,0.139953163946232,0.994284298965797,0.830460757752682,0.461580835832637,0.219724066246244,-10.2581189583339,0.894774158656701,1.40852440110318e-05,0.344973195825126,1.82471064848036,0.388609943408043,0.499041007603833,1.32861281557987,32,0.555828777460704,26
"84","-1",0.274373437530048,0.306729072178202,0.487009551712495,0.845550097699812,8.76894550195961,2.79505803321988,3.57770531507511,0.929166666666667,-0.742548112172888,0.0558065269652998,0.955589398705317,4.52508006617553,0.572349303734,0.597476231138563,0.0632923761305274,0.45731072745907,1.08464214128943,0.554646945036108,0.373499832968132,0.53975662330499,0.549042165639196,0.996994045443543,0.977017931330585,0.18734238797705,0.501516367300731,-5.84050146956857,0.982913825424459,4.30524739154957e-07,2.47709244393417,2.07386143945703,0.45259545610069,0.395911135441731,1.57153742303103,36,0.366523532686671,29
"85","-1",0.34296679691256,0.408560101992826,0.562131341083954,0.927118496803087,7.89598212593573,5.59629862288502,3.40229612934622,0.9125,-0.703975383433932,-0.287423136117989,0.97426834656723,5.57577786533738,0.451812311587022,0.327385713313188,0.00583969566973576,0.897431878605822,1.48340244518427,0.668531990286943,0.684309375296963,0.554359437919006,0.255344769696608,0.996986780923591,1.06695247495207,0.0098510588096669,0.577490056701267,-3.65300509513955,0.979970177611732,3.30268752171386e-07,2.16835180523348,5.91190328408228,0.424220741339021,0.357483283586239,1.3215415467633,42,0.342233058822058,37
"86","-1",0.274373437530048,0.445008579735503,0.594750826014613,0.964201024663991,7.66366586875474,3.01192908810607,3.54413208800327,0.908333333333333,-0.373025269319749,0.0775059474666361,0.962525560647691,4.52585185821765,0.372737295732832,0.335557789556624,-0.0301924140401687,0.947424893705731,1.45071832444015,0.374273510060209,0.600263984741974,0.560335526648447,0.0535568960602256,0.996752367044212,0.968799158003705,0.133787313409575,0.600349530661525,-4.94597997757611,0.973680341178874,2.83813042297793e-07,2.53762035387181,5.82375484732601,0.370140283591624,0.365447957948904,1.06777597329827,42,0.256965534313642,2
"87","-1",0.548746875060096,0.43387994732435,0.651699082071253,0.979872802617356,10.0678052758002,-2.83377999817666,3.96384906158057,0.895833333333333,0.550584897280511,0.285010536807011,0.912685391448403,2.13871708108741,0.271332788209919,0.212426186420506,-0.436538452343134,0.333851479051927,1.02819376191343,0.17176388131212,0.20445450794943,0.621185411930959,0.367986208543818,0.99438566690114,0.635617996964363,0.711758498572775,0.272283185700226,-12.7980669577725,0.907016842886423,5.41230822172547e-06,2.12594484580909,1.28401405668954,0.414095725160407,0.470882817890375,1.40680581477846,17,0.526571483257492,15
"88","1",0.617340234442608,0.540792974038504,0.644849350421329,1.01952603603959,8.49465261568307,1.56094749352273,3.97146593688158,0.886111111111111,2.387373435903,0.439794453499578,0.887291737868898,2.73586612429821,0.160621504615193,0.237215985365286,-0.352324541701868,0.528550759342854,0.905324794236618,0.212412418749534,0.467431813945664,0.643013525643069,0.643230331288302,0.992709110917174,0.764650902718493,0.580431269888884,0.24798549526003,-11.8503863613582,0.860787123709715,3.83545135561226e-05,0.986240251665921,1.07154927041939,0.373855103641283,0.523169167892649,1.338906113749,28,0.486822813894511,36
"89","-1",0.548746875060096,0.520911227607468,0.693243453544544,0.990108286905473,11.4456504652622,13.5485117414775,3.79797979741307,0.891666666666667,1.65212896547094,-0.768964693266517,0.932219142931699,3.71269498142967,0.095761327982656,0.111919294618746,-0.42039694261486,0.370979350688231,0.897301824324632,0.0874233199426663,0.512311861283535,0.59019373542592,0.556901301804466,0.995365593998869,0.937283548918249,0.116396769269029,0.384490920714281,-6.56324293086775,0.940760067025444,5.97669340490735e-06,2.40491769094523,2.4600696385447,0.265758690408987,0.234733226042727,1.33333299882781,24,0.422504005345453,30
"90","1",0.68593359382512,0.334681099252952,0.634461262214365,0.98059531458967,10.3597927271625,7.73527129880295,3.77673109778266,0.904166666666667,0.804533853907336,-0.578176668949452,0.912398601598248,3.21220028742098,0.252940444746272,0.213880984793594,-0.0101263573614904,0.24283647616141,1.16097417708053,0.26903238332268,0.324731762804094,0.595110786770674,0.991070155408183,0.994439048733676,0.901961212809617,0.0744637905716848,0.351446308487889,-8.74431153878728,0.90559789063962,1.01630440917695e-05,1.92400773125725,1.56919530901053,0.335183812470342,0.392098349521542,1.73174255168873,23,0.643354082157606,20
"91","-1",0.274373437530048,0.34736754615972,0.55278457712483,0.929839088832432,6.8678370674421,-0.357913987657125,3.29206890730981,0.916666666666667,-0.83571577125648,0.0390506341527627,0.977938706456008,5.41286969760216,0.617843576182578,0.560905192071673,0.271348813081723,0.571187402004159,1.79164590528833,0.63677173136036,0.698870548244602,0.557412777966394,0.28969004331905,0.996994443243828,0.99919801721515,0.0171525493732106,0.670832506158467,-3.87100178484353,0.979077045854154,3.29495107913401e-07,2.57543430097288,7.21990492404968,0.533208531254746,0.515797658976864,1.0386488879292,3,0.302816070291284,5
"92","1",0.480153515677584,0.47482399171788,0.651905835720591,0.995758980233539,8.91928103473923,11.4323746503291,3.7985026218697,0.8875,-0.801655574418814,-0.577790242061296,0.93507401765556,4.99452092325759,0.188053280351494,0.219577403631239,-0.252154123477262,0.253552161340695,1.05670962789166,0.199224972894119,0.238355161283637,0.56829731657998,0.325113208893271,0.994782063638509,0.91467856296237,0.211445682359269,0.96232520118021,-6.61743548004494,0.906933953580253,1.54033515795069e-05,4.79210585165145,1.09080665602891,0.413249475973849,0.570317118139014,1.44227253955142,30,0.535335061780646,36
"93","1",0.548746875060096,0.629626454619657,0.642838532117071,0.995486112782992,8.46913008088929,1.77189742209564,3.84309682410872,0.897222222222222,0.913862364653635,0.215099736980999,0.93141474386101,3.46319369652484,0.222508309193884,0.140895609468941,-0.320169472331596,0.420167238491729,1.07216308408807,0.200190775248973,0.426714399963989,0.607411945869932,0.253340257943572,0.994838658326411,0.919208615780048,0.23373222126811,0.262749234787108,-8.77983141731065,0.928511967292648,6.79200457334167e-06,0.983819423363403,1.49782859811032,0.39140048039414,0.300193275182256,1.58452765781591,30,0.693994009501818,28
"94","-1",0.411560156295072,0.388712458452923,0.529318665471412,0.916221322424036,7.03022460648976,4.74570280904619,3.2665674803986,0.919444444444444,-1.35588250557272,-0.429580535682181,0.97872368963075,7.08831686657231,0.586590317549921,0.648435134903354,0.300056344929474,1.49530134280389,1.32268768128906,1.60525089616657,1.34214080607824,0.519964330228097,0.0103298410304944,0.997135085201849,1.00432617694295,0.0129591825744185,1.62433964359364,-2.16687801222861,0.981870525679302,3.53752161445291e-07,6.90281225864527,2.1388710887028,0.547545882603003,0.766624573561149,1.46306615247473,38,0.299736647021778,45
"95","1",0.34296679691256,0.46458586079709,0.58339736845751,0.946967786673782,8.69532631892788,0.768145612824655,3.71301694171254,0.906944444444444,0.538825969592412,0.281579623675847,0.946649851568509,3.7086615679607,0.410267780430981,0.320976588667366,-0.133661770784348,0.683732218008211,1.39659846635179,0.608933586562924,0.652659245092336,0.574786880039167,0.328778000222173,0.995767803958788,0.885997553710114,0.418618230856376,0.518640330857647,-7.62531940109539,0.944268445791202,5.12515384437436e-06,2.37064922435608,3.55691579870307,0.490100617602511,0.616044714211219,1.24616559476263,33,0.402028304136615,2
"96","1",0.548746875060096,0.419037522704011,0.593749179967964,0.932347529828995,7.76903065610293,4.83368115892798,3.55039915036436,0.919444444444444,-0.628933086447383,-0.247767272536987,0.96841055371684,5.10141313240437,0.5160098283232,0.336828481817285,-0.0483281613965254,0.451469626227132,1.59495712077325,0.626056675076448,0.459581533144731,0.552448989062315,0.33208566032729,0.996429506511549,1.01087123102697,0.0522433595828788,0.610966154797463,-5.12045188620707,0.97129822572633,1.00359400888185e-06,2.58266050783147,5.07609709419756,0.538630940953336,0.458668217803568,1.37515895641124,42,0.37032459483821,38
"97","-1",0.34296679691256,0.368616018062626,0.598774531827511,0.94828683937502,10.1471020156948,4.32682414719985,3.81300188375374,0.913888888888889,0.252133107707952,-0.132699782259771,0.93125711567581,3.12961294007305,0.41692598686459,0.548755045548538,-0.449103274379439,0.249955571584892,1.0083936893395,0.281527491399485,0.330151310064743,0.560837163953061,0.747227402774114,0.996409182913244,0.820975780133452,0.740280724177907,0.301561881262509,-9.72319140516474,0.980110239456436,3.70850283342995e-07,1.78833677058877,-0.501384079271458,0.311551207235886,0.185079379263141,1.54889485873887,20,0.808353271260714,27
"98","-1",0.34296679691256,0.448326818211004,0.592350984726044,0.910423988508028,9.01346273793969,9.35432552138049,3.50346922985967,0.916666666666667,-0.558277771115254,-0.52930032725326,0.972240033900236,5.26438363850512,0.52562185137374,0.344889945823161,-0.0656651871182746,0.252067736324014,1.42944653830383,0.518234594563229,0.308519715214246,0.548725183103225,0.428114575591581,0.996505892364576,1.01844959842768,0.0566130482314122,0.747303929251473,-4.92715417551216,0.970799481103239,9.92154720456305e-07,3.89248959608997,2.14966567875817,0.540494160953674,0.491987182277813,1.3975628539691,32,0.448292173324709,38
"99","1",0.411560156295072,0.575487439024574,0.674884112708638,0.977779121400411,9.70978738845009,12.0578034421496,3.87111119264478,0.895833333333333,-0.312709345794687,-0.541006422879949,0.921926819089709,4.14918751864121,0.276084919507057,0.32510825378306,-0.238423601879603,0.261374925096931,1.0428214322864,0.230887943915828,0.249671640723998,0.600444784596797,0.573423019624937,0.993913844414057,0.867744552457213,0.301488865029265,0.743328558353719,-8.8667510606074,0.894902103039264,1.85384001527852e-05,4.08283104903213,1.45820328711825,0.434052631742591,0.752787890237534,1.52733350883825,28,0.561659397090778,25
"100","1",0.34296679691256,0.629561100717973,0.639278933483921,0.982135251683821,7.37956790038549,1.32639191551161,3.92267692709506,0.890277777777778,0.217308548913747,0.14050201798166,0.915144787687885,3.34092695878031,0.370553526600385,0.289143497139967,-0.0939620573847144,0.170317807499486,1.12568859863648,0.298840075296404,0.259836598932969,0.599813867590595,0.802593608662719,0.993619058213146,0.805119060678421,0.691641266442814,0.51245097146092,-10.6547619097221,0.884359773210265,2.69860214555286e-05,3.00293839021068,-0.642322133402094,0.489856997384072,0.566677499592188,1.38411193922015,27,0.548553218824641,36
