"tsId","class","lempel_ziv","aproximation_entropy","sample_entropy","permutation_entropy","shannon_entropy_CS","shannon_entropy_SG","spectral_entropy","nforbiden","kurtosis","skewness","x_acf1","x_acf10","diff1_acf1","diff1_acf10","diff2_acf1","diff2_acf10","x_pacf5","diff1x_pacf5","diff2x_pacf5","entropy","nonlinearity","hurst","stability","lumpiness","unitroot_kpss","unitroot_pp","trend","spike","linearity","curvature","e_acf1","e_acf10","max_level_shift","time_level_shift","max_var_shift","time_var_shift","max_kl_shift","time_kl_shift"
"1","1",0.203693800484142,0.281527377899747,0.557765516640306,0.92875056341483,9.96970619815343,9.67812248784648,4.1354076048964,0.876388888888889,6.17624593696769,-1.73510482988566,0.943044686956704,3.09095118283027,0.38571702560833,0.353884083567732,-0.0856437025045063,0.140017853863062,1.12594650762955,0.222194786580269,0.0841248940251402,0.574044756343867,0.0266982137261147,0.996566624428517,0.856941650668657,0.399100927340707,1.25033785420664,-14.6271542309812,0.83324198121977,3.52619999846305e-05,6.84566425687354,-5.7188395623659,0.500834189975633,0.539996594292118,0.960415762270589,101,0.238138990848329,117,19.0978196696036,48
"2","1",0.305540700726213,0.253323528106403,0.555279612864734,0.950663843186646,13.3687240957792,16.4336140830593,4.21991642815605,0.861111111111111,7.65165011478594,-2.0948812348318,0.907296998930594,2.2441739189693,0.202111774295647,0.131292851210282,-0.0626395478914631,0.0309430085738394,0.927958578836641,0.0820684001656641,0.0228099872871783,0.607528666779207,0.0131642076793147,0.996200449919184,0.782972590979437,0.619473722886663,0.543859429019891,-16.656920263844,0.821089913194334,3.11260227450407e-05,4.27015691938654,-5.73588639822315,0.354507502759681,0.285568322390047,1.24704797851655,121,0.407381463639608,117,37.33069046851,48
"3","1",0.254617250605177,0.397510798770014,0.620101325444648,0.945033364166132,9.2293843722711,7.38984730465986,4.173513852718,0.859722222222222,6.0736658848501,-1.55459553564893,0.934423123105026,2.96165131973276,0.398804984712647,0.249573835424143,0.0209375407339819,0.156423478732612,1.10041748357736,0.221950340719668,0.0665593399806389,0.592688406077225,0.0348079398716911,0.99623477724073,0.829858028877908,0.369559962961284,1.13832501329368,-14.0210582379109,0.82181210857414,2.66455868470838e-05,6.36479135270314,-6.12775039213487,0.521714336532269,0.512225600891944,1.05182495714796,102,0.255063373883726,115,17.7436325712042,48
"4","1",0.254617250605177,0.25667356688241,0.569077884766364,0.934496486748474,9.70385793411047,8.86282514469931,4.18302636200298,0.866666666666667,6.14048483576345,-1.78466517299539,0.933472163725148,2.83271558684744,0.444305077084803,0.403820590601549,-0.00340150307220342,0.0612366784493309,1.03428042016938,0.24724872851251,0.0497543167557622,0.580356469130631,0.00381394954253293,0.995975403017439,0.837628721191069,0.470903246840631,1.11146615791736,-18.1837915725092,0.79926757711274,4.4003780619495e-05,6.39010501744266,-4.9053775271535,0.517693558266062,0.574146959050225,1.02576964364444,121,0.247052646075933,118,14.9656182911415,48
"5","1",0.254617250605177,0.323153625441847,0.526590102853557,0.895005966511599,9.15738740236323,8.1008713763769,4.01641514197984,0.880555555555556,4.18328444668184,-1.40179282516819,0.940066674618646,3.24399940419016,0.607455145147948,0.616830792611009,0.0145207471413944,0.169022874647327,1.13376630616677,0.454987348913709,0.0580034959905714,0.561770150748613,0.216051596063232,0.997292708175099,0.846104457766683,0.486448697740821,1.61097922672451,-15.0761129182623,0.816678006939952,3.58395292792403e-05,7.96861780759353,-3.21102694093296,0.646185464988572,0.815643851364229,1.11633256170801,104,0.860999627583078,2,11.3801072857888,48
"6","1",0.356464150847248,0.253241749886923,0.519359484896997,0.95747993919534,8.95526337952153,3.09178338443243,4.13414218329883,0.8625,5.71774080631607,-1.51467435660933,0.929274900117602,2.95034991792835,0.340594557429461,0.167715112207847,0.196471941835578,0.07983814158365,1.03278746802568,0.148737080008394,0.0568893349502451,0.569167590844063,0.176417481379533,0.99656866446334,0.838563484429844,0.395684400683817,1.50005104769405,-12.3945386326873,0.864683399943276,1.64702724969877e-05,7.96990464520818,-4.35009725191552,0.360808711250937,0.196681206234609,1.0201493237967,121,0.376952226711693,122,15.0792371310978,48
"7","1",0.305540700726213,0.250821760188007,0.558415742817931,0.935159508549591,10.2857587678004,9.62954986542762,4.14947383577216,0.879166666666667,7.05323978641973,-1.93766417860014,0.930244811480595,2.60665303512884,0.396186945182292,0.319425250558421,0.046193539706929,0.0452942578255686,1.04407104736954,0.199032638983623,0.0216512280001082,0.589726440626351,0.00821583313729927,0.996105947542798,0.827726116464422,0.480973885272633,1.02181731643054,-16.7896870467134,0.808322528391338,3.92641931557902e-05,6.26330117205482,-5.0105768231935,0.465871270008504,0.460750714225665,1.10260694440037,122,0.293133723355401,117,20.4529741306811,48
"8","1",0.407387600968284,0.291508623394046,0.536475009952642,0.929066891295977,9.50591257073331,6.84351391254247,4.28286483725902,0.880555555555556,6.11802753802353,-1.72268517609608,0.92829035168375,2.75094054318121,0.537373559207945,0.441656078563609,0.211124520862549,0.0900774713303967,1.03735078020623,0.337693943320977,0.0665019074881835,0.583911765250558,0.099728509441726,0.995732970004668,0.802764351489853,0.533107388061182,1.27985769786453,-18.2890117669603,0.780569643592757,4.7154611877546e-05,6.86474170204345,-4.27781473849687,0.559159626348798,0.581909712291851,1.21795890893427,121,0.621415418960473,2,14.1604381767019,48
"9","1",0.305540700726213,0.25867272103246,0.548179348707623,0.940619967335459,10.3586247799603,12.6212466490825,4.39032946251963,0.876388888888889,7.32259015110384,-1.98272710560369,0.90806115590339,2.21828841060288,0.601328398576099,0.597433350791569,0.159999119983658,0.111255464843439,0.955847606227767,0.423425493833314,0.0613374064960524,0.597954643038758,0.314517129899423,0.995671326314006,0.694173178359428,0.804767525337851,1.2289243360248,-18.9210404807053,0.759141057861655,4.59727262274191e-05,6.35700572228323,-4.92883249432723,0.621374286615705,0.714905871340506,0.640563621497278,105,0.364205489374989,121,18.5764194358272,48
"10","1",0.152770350363106,0.18398682317003,0.451093850248322,0.946713544927511,8.13786747715456,-10.3789055996847,3.79120193465283,0.865277777777778,0.650934619846326,0.10569505007441,0.978896318186294,5.46161723050187,0.561310364241729,0.592976258669665,-0.0709058241885157,0.0970003025379979,1.43031429393551,0.348452060730224,0.045733838379162,0.505407107080948,0.262539356221279,0.999496203798284,0.983199614984122,0.0234683928377677,2.37899269458086,-4.63612359245318,0.946691951023802,1.69938255695549e-06,10.5794058846672,1.01825251215979,0.637420522026037,0.853757193106292,0.695984638486292,109,0.19290804593562,113,2.78665504030385,48
"11","1",0.254617250605177,0.26348537707063,0.535705658119551,0.889043414326195,10.0227724080844,8.1050522837001,4.27691814182243,0.873611111111111,7.38380485175599,-1.96563131762923,0.917126959500787,2.49166761249351,0.322645368920242,0.20686200872339,0.00352799201667804,0.0386402898103922,0.98837437785506,0.140288390898765,0.0314648645348157,0.585235483905404,0.0238961184349744,0.996115193108244,0.794222131459322,0.726449749663883,1.2872911974068,-18.1768552176053,0.795721743973756,6.22984474797163e-05,7.21131681587005,-4.09008166368778,0.383973991629431,0.303405068522295,1.25848206616349,103,0.351893559863263,107,22.6328140895433,48
"12","1",0.254617250605177,0.256111657999396,0.49189592212421,0.899415561456478,10.2309817457982,7.85832114028633,4.08834919733842,0.886111111111111,3.96215957023495,-1.33653831683294,0.948532175468507,3.53096414178823,0.415622029409701,0.34807785415477,-0.0616648547541533,0.0412178020623265,1.13962680984787,0.213103514578724,0.0108713837834175,0.552175102180296,0.122460168256457,0.997773795635356,0.881283190853187,0.317394298724838,1.88692909258765,-12.859087332581,0.849380363184419,2.84534012234958e-05,8.95942637190095,-2.51497269395567,0.503428666778657,0.524312530693465,0.923808621559199,104,0.212589439034765,108,12.5570523822727,48
"13","1",0.203693800484142,0.231803231689941,0.529226445969769,0.883357873675535,9.65275949185528,8.86623682311312,4.11477440393885,0.895833333333333,5.87206420662091,-1.65567967531969,0.932784772406757,2.76929416607443,0.367599867175522,0.21525815911944,0.182263339738184,0.0513396658220801,1.01839248494912,0.147745777068594,0.0538423669961846,0.60112336789718,0.0107604982502738,0.996502569513309,0.845225964046166,0.267668594557464,1.04542271307463,-13.6887870920217,0.847731736208476,1.97099290387244e-05,6.40446587696181,-5.33488364031371,0.435952685106838,0.366593917665485,1.15812174363957,99,0.350208263577094,115,17.6507585937231,48
"14","1",0.509234501210355,0.446098663553591,0.625025043034404,0.943775234377807,10.4492257124574,5.92385882825095,4.62600729064826,0.863888888888889,5.20260502973442,-0.81430899259955,0.814398074019,1.10958626054767,0.590042250757441,0.798595439209075,-0.219169816718585,0.102899941712553,0.821861541959326,0.481505807448808,0.085471425601317,0.668625129602313,1.00717717289924,0.994965231379536,0.393424995619329,3.66786268950067,0.123080397760424,-49.8756809533554,0.54218665401209,0.000152108763811125,-2.15285663637084,-0.958115686117266,0.7362362342484,1.21502007251198,1.41865566509816,109,0.925969917647307,119,10.5152148770314,48
"15","1",0.203693800484142,0.220096892501529,0.488485538552984,0.889979767748338,9.73360552563991,7.94617356694341,4.01833980841879,0.881944444444444,5.76988977531236,-1.81764497676168,0.95252274405247,3.41319622915703,0.395972981941733,0.33925212329524,0.0431615239001831,0.0358061168991113,1.17223714456937,0.195077237611092,0.00973194622203366,0.554207624864679,0.0414543910130974,0.99698721574555,0.900912831205745,0.23332712506291,1.52303130173984,-11.8440311258303,0.870294913681077,1.90045139569e-05,7.94181120867302,-4.94699745829269,0.485529544882152,0.513713251392644,0.967092248959815,101,0.293159678453943,122,14.3374298256225,48
"16","1",0.203693800484142,0.271913694467925,0.522232521746141,0.932266466028974,9.52370900756372,7.79918614277758,4.15560699010442,0.884722222222222,4.59435125353543,-1.42519712398171,0.936771222193007,3.10622711572017,0.327599375600089,0.180452666831284,0.0889454238755859,0.0436912869008961,1.05871763917685,0.128120305808503,0.0236467227228442,0.567780380706402,0.324891559548585,0.996438201338819,0.875904282553971,0.29597071185124,1.3420215163281,-13.9541935132796,0.845046530164132,2.8556417257238e-05,7.37755668952131,-4.68391559438661,0.405946620230474,0.31297619224837,1.15202778859829,102,0.304483341915821,118,13.2171446485324,48
"17","1",0.458311051089319,0.270423359536179,0.536259857381147,0.918411711137443,9.66662988735699,6.82597251136665,4.34516035543556,0.886111111111111,4.91504301299942,-1.55801930820211,0.921894479889872,2.91789732091062,0.529036282738706,0.447694712172209,0.236070243341172,0.0939701643500041,0.924732627492017,0.329606194129408,0.0847559477780898,0.579296240477169,0.00504166015333658,0.995934690622109,0.802110974956039,0.442204262629006,1.17912979583219,-18.4113333766527,0.790893785199689,3.54563589829801e-05,6.30927372026239,-4.97743033133105,0.55632201332024,0.593486156797171,1.09403198683115,2,0.331878840278539,115,13.0097351272644,48
"18","1",0.305540700726213,0.196079909042499,0.529074681701383,0.931823682093356,9.9038401849487,8.07096723599007,3.9103893840004,0.868055555555556,5.07600753210562,-1.61859004074136,0.954707985353611,3.22125158626284,0.563922815856495,0.629734992987584,0.0188143654757767,0.0792380479583042,1.33017463750938,0.406423178420896,0.0434787677205478,0.579389258113851,0.0477337670817376,0.99744678821121,0.856899350126475,0.206717532555462,1.08643652163687,-11.6960754882599,0.858751275074988,1.18042960923412e-05,5.90553831833977,-7.03208132836585,0.669324398122585,0.957727390674116,0.89962265040134,102,0.484717557916388,121,20.7746729016023,48
"19","1",0.509234501210355,0.306813032561275,0.5667839607603,0.911420593015689,10.9880830115198,8.09279115753587,4.61500707164062,0.8875,4.26504721951221,-1.11978177410155,0.825890982584701,1.54590335619312,0.454651805113902,0.304816182587923,0.225565282571015,0.0744833462683585,0.710179419172385,0.254943654509959,0.084943601226403,0.614288437070015,1.05935180182282,0.99346290360968,0.621318169881208,1.43873585317935,0.508744565613192,-39.3467777788623,0.624121983920317,0.000126771184592548,3.48667733769624,-3.42750817192195,0.483649895647554,0.441172434061282,1.40668048433248,121,0.516056619382012,117,11.8884136254078,48
"20","1",0.458311051089319,0.376048841912256,0.599042540177832,0.954410819395448,9.9974215775085,5.1838847676292,4.21583791485967,0.866666666666667,3.05097447352637,-0.78693347427287,0.896365244734262,1.98885438190122,0.552967191262938,0.504562498258163,-0.14142719944321,0.117835339148414,1.01310610266971,0.354700024621848,0.0985863728933028,0.609605527296204,0.357944192940094,0.997339930798419,0.610179845139906,1.75386834136404,1.22134742731198,-23.9189156137162,0.757744475804995,5.96320715526239e-05,6.3180737696169,0.910381658598153,0.74489095456641,1.07212224686693,0.968897135686797,109,1.31525008429054,2,11.1987508743936,48
"21","1",0.458311051089319,0.233212933549498,0.507643902502442,0.939682219282885,10.9966455084216,8.06654680217038,4.11631774178098,0.872222222222222,5.17182702448823,-1.73126945334816,0.926575453161276,3.1197044541175,0.455552547271982,0.292383756881788,0.128915038030189,0.0536498664041169,0.943854103332164,0.239169457612788,0.0467975348127573,0.55689738493307,0.0877929146908521,0.996709513592242,0.835483745133051,0.265068397566913,1.47953917650667,-11.2498532184657,0.874348870139283,1.30162702034665e-05,7.4889613245429,-5.62221856381812,0.461342774891888,0.341441138227942,0.888428795185531,100,0.204441207414495,117,14.0407412576832,48
"22","1",0.509234501210355,0.289373369979805,0.565032817258496,0.933372101344357,10.6148006477494,4.63260612465842,4.46730936652255,0.873611111111111,4.35304117407963,-1.13797272642266,0.877997613412997,2.05026545319621,0.375562778767614,0.303862558495121,0.0463897746196946,0.0440525870976539,0.815271208602864,0.175247312455027,0.0310557248408358,0.607730287083837,0.611173914156258,0.994557943520692,0.725279454116922,0.86493531358085,0.745896019567104,-29.650327482761,0.711844711465765,6.96098860615509e-05,4.80152213440364,-3.24043774904388,0.518965630530837,0.5938962768938,1.50769782806265,103,0.566633048319568,118,12.0974408300682,48
"23","1",0.611081401452426,0.259904258021475,0.535268445305151,0.9284656217631,8.98135129985361,0.862248482605002,3.93129675015201,0.865277777777778,4.89796708265715,-1.40583308744622,0.955963210851908,3.45615479734942,0.494273542646077,0.453646700326618,-0.13817455268346,0.051923460836294,1.27758342926403,0.303979607667758,0.0435982168170811,0.568054683813484,0.0374569626928317,0.997578429498813,0.88716218885834,0.152973794366313,1.25730486079713,-10.0927087985873,0.903069498843794,5.57605942003979e-06,6.78198867640864,-6.58537686139014,0.619441967008824,0.731120364438796,0.946581548474957,103,0.312351298535873,121,16.3107592555487,48
"24","1",0.152770350363106,0.146991153640487,0.440648122116686,0.928982888210744,8.42245163430785,7.59438265820043,3.87787981124389,0.884722222222222,1.14322772399576,-0.85955606045408,0.97089354579301,5.5167326703318,0.335470313846011,0.218125762101009,0.143065597723055,0.086593461084209,1.39550184030372,0.15205034031107,0.0568967713767928,0.474250104354687,0.280505084691973,0.998953818289256,0.981465254775964,0.0717062381513642,2.51856964007299,-5.13706667200617,0.942059319447128,5.38068754529509e-06,10.8018842718391,-2.30540924236351,0.346267083729094,0.262183561717008,0.524555721486105,90,0.145055264130408,122,4.95889601603508,48
"25","1",0.356464150847248,0.289267201902454,0.525801791047761,0.919023383979054,9.13985595404558,2.43209996841561,3.96596679567565,0.884722222222222,3.77009934417409,-1.16777772458078,0.951659477229008,3.45350772787892,0.533361590094337,0.427141114644445,0.0913433951862394,0.0556499084065068,1.29644458774509,0.33890079339225,0.0187522972504984,0.56133991019017,0.246670120198166,0.997726580525054,0.902848655995823,0.251703017826329,1.66800867079109,-10.5110564273813,0.869037864835057,2.13444305241619e-05,8.51791193074767,-3.15668063318477,0.531960847968729,0.505088767417367,1.26458335082341,122,0.418714756613005,117,12.4195094104568,48
"26","1",0.305540700726213,0.261960087555624,0.560106510109868,0.981569092796649,9.55315770619841,6.65508117957701,4.17368606278531,0.863888888888889,4.69079175191363,-1.20664996337199,0.93704587773094,2.71542922875763,0.485516835409159,0.508603024563995,-0.149151832768057,0.208424352369176,1.22005504109533,0.347983854116378,0.177066105208266,0.605539888411718,0.0447522233601657,0.996298935406165,0.697383819772403,0.687155901276817,1.12778145084397,-18.0233990423086,0.780242649984685,2.85555850438859e-05,5.95670443699853,-4.13592128333953,0.758528249669857,1.22217395314418,0.932102964880895,104,0.672712618070633,3,14.3860016819768,48
"27","1",0.356464150847248,0.288935807887702,0.513991034401049,0.888551372111794,9.40623773028529,6.78722528932765,3.90771068082459,0.883333333333333,5.79531283692966,-1.73430444392248,0.957070531846665,3.15342170688847,0.605874022618959,0.748020026406107,-0.0496919454641119,0.147436305697522,1.38815289763667,0.443070114176754,0.0465019939885277,0.578714470254046,0.363250886609101,0.997179306043553,0.880952709584062,0.198325040821293,1.33773516481251,-12.5656581761314,0.854754702522267,1.34532339884436e-05,7.12285806150913,-5.41810307719551,0.715770622068449,1.0975810185989,0.99110727793571,103,0.277647351420049,122,17.2989712671808,48
"28","1",0.203693800484142,0.202247084847111,0.463733399936714,0.913856624876713,9.28107351744349,-1.31606835554908,3.9119527911411,0.877777777777778,1.32497708234936,-0.318455269360722,0.941112557269474,3.60465404506904,0.652039208918016,0.779569150054334,-0.151189058207374,0.0841342131971252,1.04861802682529,0.497969222174813,0.0846205552166822,0.548647490280098,0.197669949343245,0.998838300337405,0.797118983701322,0.573302282020595,1.9450723969777,-12.9681969736798,0.863582156290809,1.46606170790524e-05,8.74766509689507,0.603117095325531,0.771799150223139,1.19218325865333,0.974800488760234,106,1.00641181369573,3,8.94837943087653,48
"29","1",0.203693800484142,0.27645437022973,0.544700654261229,0.936403945105383,11.0419476701561,12.971896863571,4.15659802537769,0.873611111111111,9.86267107621724,-2.48957413395893,0.910556105560446,2.32972923694139,0.238911381587365,0.152961733700381,-0.16268604357167,0.060872772973676,0.956497128834835,0.0956518521237026,0.0401711455081756,0.582045236427531,0.0161418484045953,0.997327410466712,0.779531848686482,0.822128641273593,1.01813131891378,-14.4788744303942,0.922048285148441,2.85305312433375e-06,6.43571987203392,-6.04520762904316,0.413237455600767,0.305976755624873,1.01708653263358,102,0.269326993651808,117,25.3471444219723,48
"30","1",0.458311051089319,0.24334552745484,0.527336681089364,0.937192003504128,9.71890817963894,5.74572466434929,4.18570201839314,0.870833333333333,6.12003196671209,-1.87046272876595,0.91520424433909,2.76807228483843,0.326960932015029,0.227158213418647,0.120825069291458,0.139050311955687,0.909783460662552,0.156961545310617,0.0819580348370271,0.580546436053846,0.0727204764031039,0.995870698380702,0.826137908891291,0.334411540191899,1.37232145852403,-14.5022319334009,0.832138718142239,2.61839392255357e-05,7.37054307600784,-4.87309854543318,0.408070951972672,0.343178773668222,1.0205522296268,99,0.220657467201124,116,23.3195152441566,48
"31","1",0.458311051089319,0.434185970752738,0.610506501781587,0.925905758725294,9.47480117880737,4.09425832134435,4.00040680387977,0.868055555555556,5.63164276506996,-1.58306477241277,0.954605319397745,3.02633534718475,0.609744158535877,0.621717644102449,0.00294899329355654,0.245389105181283,1.37278485364733,0.475323553039717,0.127458532658294,0.669075624771861,0.0896175803350258,0.998258426137001,0.740057376408049,0.89341307877929,0.336925671634104,-14.553105291937,0.838041408020424,1.63094121101619e-05,-1.07684738448189,-6.22426148473519,0.810224950000348,1.52095773401887,1.05272462617208,116,0.395649735151763,99,2.28510286486764,48
"32","1",0.407387600968284,0.300205264303797,0.539980077811796,0.899711955323903,9.27880493643958,4.6387485693742,3.89259763863723,0.881944444444444,0.13966814755816,-0.635369990346457,0.938241391142256,4.4093773774306,0.18606190340274,0.127296775162376,-0.448869870074772,0.345437657032445,0.935342478182153,0.12956555936801,0.362595482629848,0.547501931490373,0.229179737668669,0.9992083268668,0.928716524122711,0.0638536181209626,1.19843079435954,-3.28556777084389,0.934080290115717,2.03225558068223e-06,-6.6511807044946,-5.98377394561953,0.655596649816501,0.822375395631299,1.80999358816148,111,0.759159118432229,113,5.44106772953038,48
"33","1",0.203693800484142,0.252207256326043,0.544472459813198,0.902356502236648,10.0816379602716,11.9941062967252,4.09790142045768,0.875,6.87799506309945,-2.02248796072209,0.922755268386315,2.71669377818825,0.236673863313707,0.131741040415611,0.000274364388310724,0.0278090384872664,0.951435315121645,0.0786674552312698,0.0195367572386284,0.585928918230042,0.00627214309048515,0.996904050003905,0.841633961169237,0.331024514374686,1.01326965516597,-12.5455378185377,0.885318976302852,1.03366203810159e-05,6.24639936007489,-6.18901008535881,0.362945453679332,0.273161136235692,1.08754097633535,121,0.322091628778154,117,19.3583305348029,48
"34","1",0.152770350363106,0.136645692873929,0.384674931851726,0.864581074927625,8.13921140152927,0.875755623694892,3.95057071470907,0.891666666666667,-0.581915890383312,-0.269121094499976,0.98108138700807,6.77426998457235,0.555344405382989,0.623837073230007,-0.0484943509523415,0.135459016513131,1.12584806819097,0.386731760197981,0.0859542563739045,0.466362583030592,0.345232132630947,0.999633431282071,1.03042839196011,0.00976098604391002,2.71633824097721,-1.6516482128772,0.969714901236826,8.33857260260582e-07,11.2097145058733,-0.798290555869675,0.644278573280442,0.877219274785924,0.614443353930973,94,0.0859929668475547,87,3.73629485251961,48
"35","1",0.254617250605177,0.297714916279132,0.520934975452118,0.884700985862288,8.51178898487423,4.26244540172039,4.07157616755074,0.891666666666667,2.09205885987435,-0.825538263679476,0.942072073422944,3.49874931562011,0.53191890277374,0.499770749216592,-0.115556524182066,0.108334109714681,1.04426160054158,0.329033659871047,0.0657243670916662,0.556834623356807,0.264141655523317,0.997434625967884,0.807704310389503,0.359583313281847,1.55833257918674,-14.9600600643407,0.832046464385639,2.57865630754595e-05,7.78898407333489,-2.94526930134348,0.637537824277696,0.795547762834647,1.14802511885482,106,0.900298302226699,2,8.4167048518237,48
"36","1",0.356464150847248,0.283481518868837,0.533998417982567,0.914465156950748,9.05141239382336,3.7455252263441,4.08478145335354,0.8875,5.47062251806804,-1.41954003139517,0.940156771190037,2.78650122287681,0.57103439118909,0.535671868647942,0.0778191604266584,0.0748636161380195,1.25410830071167,0.410685024848144,0.0262134528887568,0.580041654424295,0.18187167728018,0.997078437350202,0.832013613781871,0.442440112848769,1.50186134820771,-16.772139544061,0.798445437919103,4.08553163766775e-05,7.78634938539307,-3.0585273063402,0.586348992394059,0.648041286566044,0.968163150031609,104,0.325846018620034,2,16.8959777452069,48
"37","1",0.407387600968284,0.447462893350363,0.607014501727,0.956630627727749,9.08275440466969,2.44754083824544,4.0667289196871,0.861111111111111,3.01941712962726,-0.823680674080602,0.946146608657122,3.26066433020135,0.487635191810866,0.438007521400662,-0.0492306040590878,0.23077969920863,1.27780063160217,0.37317933487146,0.131791487004287,0.606429247857877,0.090922934960365,0.996700124374832,0.808575704744348,0.29957904243653,1.52150598514827,-13.0060451866724,0.840049730074889,1.03027072119798e-05,7.25083570417086,-4.53922280702,0.671918179914206,0.824302557628933,0.693616380598731,105,0.567133243105236,122,8.09012194810969,48
"38","1",0.203693800484142,0.230356951148421,0.471719550151541,0.953869129322671,8.85273338914045,8.33384351998625,4.05068792882243,0.8625,1.33325737701512,-0.894604919952194,0.96733027388521,5.25043295648644,0.37009026013414,0.262327051933783,-0.202709922067781,0.143230497733207,1.1873655390107,0.157785952441843,0.0936101138621896,0.499444804894558,0.243479934096004,0.999135091354252,0.999607670771236,0.039482053121327,2.40483577784106,-4.15817933218687,0.939783551109967,3.98446757795929e-06,10.5099975368623,-2.48597855750353,0.514921633720678,0.5250547457553,0.624363426599733,103,0.114843194882046,107,5.40398858680676,48
"39","1",0.356464150847248,0.311240598343302,0.5389250017575,0.941423517269521,9.15229150788837,10.1785015283664,4.33192788980724,0.873611111111111,5.79293438440764,-1.79639210460064,0.910659697210284,2.79957333629306,0.307420974813084,0.18282459128267,0.0235752436551449,0.0241732651196018,0.890162381355222,0.117741919609741,0.0127848929647158,0.566967073034943,0.0230457223866577,0.995159798432478,0.810506938992021,0.541496531989136,1.37504779907581,-17.6593114008561,0.794141603397428,5.00014545473612e-05,7.1530612965139,-4.87283555800991,0.39834800890551,0.330793018537194,1.04052004606977,103,0.247191353035663,108,14.0523879885189,48
"40","1",0.56015795133139,0.382428263255888,0.62259940375535,0.978314563183026,13.9066703221444,26.4247629069212,4.24232870791394,0.8625,10.5167272687408,-2.93916774898884,0.910180204140734,1.91293829486986,0.606543438200004,0.660910159598384,-0.07557432963896,0.232256253306223,1.2293324315488,0.531093435052721,0.159855847395822,0.629283031742315,0.234290722798894,0.99557355807442,0.656260146004477,1.57807982666664,0.336212176919026,-26.7017839775552,0.683075946046356,8.28597282305006e-05,1.86848786069461,-5.52665631311644,0.701165697732072,1.00611988674406,1.11376207835235,122,0.481338644599889,120,37.8052185833948,48
"41","1",0.305540700726213,0.278684490363636,0.5078543720233,0.923188765003551,9.5135783946216,3.75295579014443,4.0371966022387,0.881944444444444,2.05310031922631,-0.713635125241013,0.952822488007503,3.72058091292703,0.6122762155912,0.685520976176708,-0.172690102311078,0.0597983310203171,1.21648901267626,0.451846459937883,0.0589684992817793,0.554853321353205,0.123203180074981,0.997842045214197,0.804924470536451,0.367547446842542,1.78107203912527,-14.4202679873682,0.834658685532158,1.9652121154973e-05,8.35701136024885,-2.01359170394995,0.701495217916038,0.975393269663186,1.17183668887683,107,0.599204924706114,2,8.58629471478327,48
"42","1",0.152770350363106,0.166540880979025,0.494407781406249,0.797379493781934,7.69223909459016,-5.43911147162593,4.22111252100909,0.909722222222222,4.05738666386588,-0.771790414309287,0.937328184238979,3.48763086414244,0.585302888955057,0.740649492824378,-0.2119735697837,0.127251082606271,1.00734590047177,0.45447931809044,0.120162126024494,0.531453717729154,0.68995989830106,0.999334305391016,0.901005654370128,0.220419145287843,2.07770882643123,-5.85844545272747,0.872034703626829,1.35049404652561e-05,9.77361717141256,0.805565875666436,0.721362081362043,1.19289004092576,0.567157814045745,101,0.0977367392605911,114,6.63820084067085,48
"43","1",0.152770350363106,0.136879723327024,0.409213796426763,0.784340689874237,8.26248986135106,4.84963890863215,3.75307443612995,0.906944444444444,0.834627068329187,-0.616504044436514,0.977939202638995,5.66204040425572,0.428749211633467,0.474118747874537,-0.132237086713209,0.0962964182483979,1.31127643045517,0.270758707634559,0.0618227769727727,0.476702618668649,0.295881528158517,0.99904031063725,0.980803883430068,0.0508215103973856,2.49784156032899,-6.00913903774508,0.933326513941856,4.35647273551841e-06,10.5987683754733,-1.61006807839493,0.592656764486797,0.792734710437292,0.483728732516811,90,0.371539505068943,122,4.53589145582697,48
"44","1",0.254617250605177,0.383836486291933,0.559246454697899,0.918356025264892,9.95540703450406,10.8467554392733,4.30948153979557,0.881944444444444,6.77772411413211,-1.86595294096974,0.914407644956052,2.31886077036209,0.517494491796732,0.383017482415134,0.176989819364209,0.112142540037572,1.0934492706756,0.358130018232562,0.0642516832187298,0.594109244926296,0.226987777222084,0.995537282770362,0.769042365316586,0.850064092704279,1.00193793568122,-21.8721197685441,0.749194152616243,7.49101615593121e-05,6.07292773966743,-4.15194060219442,0.512545743076681,0.471067998103036,1.30466288782003,121,0.456494829024656,2,11.9748165458236,48
"45","1",0.407387600968284,0.377423073891408,0.577859653739704,0.931846002027069,9.3352622426616,8.55020484129969,4.09138985699839,0.870833333333333,5.37626899174436,-1.5381976050943,0.939742665241955,3.02318056314326,0.53991114673019,0.495910549920785,-0.115512686747452,0.0992013571116295,1.16513522226729,0.364974331794289,0.0222339526446251,0.583776173607079,0.161633728759774,0.996649669862919,0.837945284913624,0.443973491391976,1.37687211845265,-15.8349254124358,0.805880572360644,3.8324314617054e-05,7.21001900471002,-4.39222516564435,0.607444879398786,0.693703517358556,1.17027343566509,102,0.540957307046866,2,15.7972747098009,48
"46","1",0.305540700726213,0.321615002218644,0.560451099433972,0.907450759346951,10.1547583980114,11.5855639477541,3.95229106277629,0.880555555555556,4.49385838590427,-1.63742739171078,0.954987807585209,3.94741096775779,0.310032583267205,0.162955996741682,-0.0549083673463662,0.0850058509721224,1.10722870587986,0.113297437228122,0.0508846665979773,0.54956029846464,0.0387174640196001,0.998362698075485,0.943939334933581,0.0571493583877847,1.05034608865508,-8.11417176044339,0.938957283393201,1.92051422355932e-06,6.0276742896063,-7.9640125734118,0.545375432448882,0.620619970409522,0.80048577185458,100,0.140470430262713,122,19.7896103757338,48
"47","1",0.203693800484142,0.218689717729734,0.490899303452326,0.892053366484321,8.97952427729166,8.11151591808656,4.077392421874,0.876388888888889,4.45045675200467,-1.48208741346891,0.948153309602424,3.51040257634221,0.303801116725822,0.163756154811318,0.0437647716075306,0.0404221732396981,1.12835198080777,0.102705382960588,0.0053889468866586,0.549175311316728,0.334505731309631,0.99712793929348,0.908191222699057,0.212940874655931,1.57400311201213,-10.7885886150168,0.881685789279838,1.66487810707182e-05,8.16107467590937,-4.82105733642694,0.394404102754284,0.295429415438458,1.03958835953192,101,0.2842083587783,116,12.1244925357179,48
"48","1",0.458311051089319,0.377095965157581,0.598641129548193,0.953123135160714,11.2560149451355,16.9244637953313,4.31951086804074,0.873611111111111,7.48179711021185,-2.21658479742347,0.909978551991081,2.08186375603759,0.483785334597046,0.498434759715596,-0.140203890202617,0.122065377522538,1.02491866240966,0.310981541076417,0.0860373415431577,0.623457536847602,0.0932981632985908,0.995286948976928,0.700729366878318,0.907727288731591,0.828257995954732,-24.333157639287,0.718879865942512,7.96688848239009e-05,4.79150422636369,-5.75759148616765,0.574944912281932,0.69877602529951,1.12548469126095,107,0.477967016300569,2,14.53357778983,48
"49","1",0.458311051089319,0.325784719329239,0.561404795050327,0.930658084104624,9.69500019967734,2.65457000299503,4.22586928593755,0.877777777777778,4.30015740594131,-1.09389725622836,0.931267987559611,2.54550963686694,0.589132334777598,0.694341672360044,-0.136522296833555,0.0683884482953553,1.15583425477522,0.444801792626601,0.0495966705796207,0.603524204225569,0.0852140477989005,0.996585372739901,0.715021433046505,0.609761180421484,1.28812583073072,-21.4716246275723,0.756766800608522,4.24458335417452e-05,6.75050476494556,-2.84418508738243,0.680217598554757,0.960557114883379,1.18371084046734,106,0.936091726169192,2,15.5969721802895,48
"50","1",0.509234501210355,0.223396723257699,0.572595349218503,0.957205697829699,12.6765579005401,16.9888409808412,4.266834589104,0.852777777777778,3.27833139222947,-1.47269384258352,0.917635295404514,2.55392498905019,0.583529549665003,0.510689288589483,0.00518878008291911,0.161708239929723,0.932594907368605,0.389891534363963,0.0933717891827184,0.639064449309438,0.287437348081523,0.99904031063725,0.779967237848959,0.231398208279221,0.423419135724801,-9.07354832856232,0.852086847239548,9.45260409752771e-06,1.5135388347169,-8.35844926334853,0.69233488328398,0.982648109909225,1.06293333311307,99,0.564754819840426,120,19.3793269658648,48
"51","1",0.203693800484142,0.28697269927231,0.535976557505087,0.914496079772284,10.2831680063341,12.0576543624221,4.17976848322045,0.876388888888889,6.38315605901035,-1.89861381934298,0.92163040090666,2.76541968267929,0.338073916001551,0.197079468947039,0.0567780380509554,0.0199782855841897,0.942422161640616,0.126004069382815,0.00731039762191503,0.576717820688414,0.0667869013180282,0.996292902247076,0.819205076687592,0.404911304986484,1.25894288385334,-13.1462583989474,0.842246527648196,2.17043181178565e-05,6.89946656990484,-5.69037560577761,0.442260280849419,0.386384243867782,1.0200663582363,103,0.241678267695183,108,28.1869768548717,48
"52","1",0.509234501210355,0.434546927124653,0.634053526654268,0.91421864783982,12.3779570150796,11.5879767690723,4.18085084959906,0.881944444444444,6.09104863924034,-1.83192230713738,0.916192779190878,2.49534401323463,0.371301482054541,0.218069134386486,0.0272943446950018,0.0497219804270281,0.941822065376121,0.176380975944195,0.0300539881343238,0.62968491846991,0.0461673088118038,0.997429596652693,0.798080754687846,0.318837799304135,0.635590316492796,-11.986315479872,0.838677275323247,1.52511932105917e-05,4.16281028328995,-7.13877712610432,0.524808212430256,0.56807300974964,0.942780979549615,99,0.301158479957075,121,32.2655107518648,48
"53","1",0.305540700726213,0.253081780842543,0.516344517205329,0.943133044249396,9.06495166234137,7.01423913927711,4.09690527181945,0.876388888888889,5.0602773631537,-1.51276817327515,0.943262733481569,3.12868229597824,0.34893241502913,0.207777909692071,0.0331695898017031,0.0352218251066803,1.18234715025311,0.152969277824373,0.021628154042903,0.563239290080147,0.154391077744936,0.996734335385775,0.877138219865279,0.32136864813111,1.33036168828122,-12.4539375825413,0.861100015487826,2.45655004116114e-05,7.38965614140207,-4.66024854707164,0.423504764848902,0.329303654885291,1.1105901369213,121,0.344065086436118,117,13.8918093002254,48
"54","1",0.254617250605177,0.198251351783173,0.472392437126861,0.90736557949163,10.2919715990867,4.508156441079,3.95140233597416,0.877777777777778,3.39988774192944,-1.2336710731488,0.962657845872679,4.09218001111447,0.382302996649378,0.332175327635054,-0.0290163142476773,0.0482821767728275,1.19460804180753,0.186129212311056,0.0151102694666977,0.542507745051904,0.122081269509799,0.99759427861273,0.943224996443163,0.114875027024592,1.81947445438866,-9.78725815334279,0.894344507142455,1.15339584973336e-05,8.85402874931397,-3.7666248202951,0.513788386619538,0.560904341190112,0.938147329384516,121,0.219817539451651,117,10.2777116586334,48
"55","1",0.458311051089319,0.215175744990421,0.56220054492365,0.98044159416729,10.0659627799222,1.61886875697009,4.01163887078531,0.856944444444444,5.96747653168753,-1.65905445897289,0.942968533505471,2.7044265969567,0.47921175425482,0.445994064762149,-0.101257308066458,0.0769494103401828,1.20442624377429,0.260847741656561,0.0502543127669744,0.613243158007697,0.0510776772862448,0.997086578467975,0.810515453017104,0.298375543979857,1.0672224876905,-13.0278447215226,0.863064533241719,1.02414937777674e-05,6.213146939581,-5.66505392595112,0.645741585233302,0.778145308351089,1.05083873285467,101,0.344939134578922,121,36.8561611861181,48
"56","1",0.509234501210355,0.289735149293649,0.565031699683983,0.89853257538703,10.8286326043911,1.8933420223728,3.974032792353,0.883333333333333,4.9280618872965,-1.54552748229199,0.950332098533596,3.26079150605042,0.515291937323278,0.501187571753327,0.101895159937539,0.0700008846258288,1.10814242153094,0.301399542681874,0.0560491872425827,0.601723843319884,0.0259330711762663,0.998098045309719,0.839650435326024,0.143634141800922,1.03420116775791,-10.8340920012232,0.883938031330796,7.10027796693333e-06,5.96054331665382,-6.07845771419564,0.639188698833807,0.890722197089198,0.949793511727924,98,0.28346639857217,115,41.6419490298792,48
"57","1",0.203693800484142,0.262728900435167,0.524358095644685,0.909286381914118,9.27002693053027,5.00157742250537,4.0402682083956,0.881944444444444,4.90109292298128,-1.3293048547099,0.945733037163138,3.17488895015733,0.448691430698633,0.290666587376413,0.13794839139137,0.0576441894973654,1.3739442054366,0.248606992696423,0.0315143587461419,0.567375619401503,0.302746333518869,0.99711055995823,0.871815564966585,0.350973785138258,1.46304836270825,-11.3973885393201,0.86522225882487,2.22111960646965e-05,7.85806625719879,-4.20733335172168,0.468161814374049,0.354926096339893,1.21492825817762,121,0.414954282482552,117,14.5362666081937,48
"58","1",0.305540700726213,0.224493066392151,0.52140346658595,0.93422071096179,9.51722058399085,9.29359553412772,3.99613709115276,0.872222222222222,5.25383336487044,-1.6761283048571,0.956453409756652,3.42172623734266,0.395032092147075,0.320031459875322,-0.0773950908098761,0.0420620305247901,1.25733798029056,0.200856847855222,0.0259830597951773,0.565831811629728,0.056953867949965,0.997176270402831,0.919209653079885,0.189777146100937,1.31472526509547,-10.8382523152731,0.883679339107347,1.51154806284302e-05,7.29724755752572,-5.49766235570998,0.504105349967964,0.508027416520603,1.08721437972965,121,0.359566753532202,117,13.9504251428583,48
"59","1",0.203693800484142,0.302692472007718,0.555412935336101,0.892050848169331,9.5727931961542,4.91684168430251,4.19463537391071,0.888888888888889,5.66127611241748,-1.53638990296494,0.928865793944389,2.7210711424432,0.273520708215577,0.143162092663095,0.00265761980957981,0.0256539638707478,1.03509355182853,0.0862934179804289,0.00226146679059299,0.586784668776167,0.0658168062269959,0.996948487355279,0.797546790490271,0.493632294420386,1.49988498119658,-13.7711441944095,0.852312920730329,2.08847078607384e-05,7.88679262047008,-3.90550836128797,0.410470474230118,0.285426914090421,1.04960612878783,103,0.332189046131566,122,19.1557758516246,48
"60","1",0.254617250605177,0.333854858544471,0.586953122864792,0.941797084511106,10.3401087281854,6.33805565717321,3.98780921766887,0.856944444444444,5.17436373692677,-1.49386374179698,0.940992035472807,3.0482838913746,0.357309306081214,0.297926063675356,-0.163037006132078,0.0819964120377054,1.08497639565177,0.176339898686623,0.0552387028411147,0.596212226478444,0.0720850811797108,0.997241459318951,0.846288749104286,0.223823949381464,1.21140911814184,-11.0073431422797,0.888223259182272,8.1461819096697e-06,6.53578889406919,-6.58930259418331,0.566376267537682,0.613402072485939,0.680173097101802,102,0.280913186036113,121,21.0524650258208,48
"61","1",0.254617250605177,0.208322244974376,0.532083981883313,0.930488718320364,9.30135871088186,4.45950138971659,4.07169115316882,0.865277777777778,4.0943196137397,-1.27827884740268,0.944069687820001,3.01946484342596,0.534255366927871,0.536002602089234,0.0702266015845591,0.139180819285659,1.19046582060113,0.358601402852141,0.0698473956393537,0.59010905419528,0.0860378502197583,0.996973255311577,0.813263874078347,0.321546838453801,1.0746666596627,-13.7283810168214,0.817647299373002,1.72408772281168e-05,5.58478003057431,-6.7308766398545,0.694374374318003,1.04598384637562,0.938379651142006,103,0.338518640484633,121,12.7323964111379,48
"62","1",0.203693800484142,0.262509125248712,0.523584846612252,0.9303887644892,9.86940743832983,8.13702478187007,4.20955854422186,0.875,7.44460068108302,-1.98509068952893,0.929423187925057,2.66697398552748,0.256263168813257,0.169498780322033,-0.056442202436956,0.0669948654509571,1.08478133788529,0.10568975305233,0.0465320273776075,0.577874143518242,0.066620174910281,0.997072808049596,0.817663982769869,0.619179403461923,1.3819732266463,-13.8330518405386,0.845618658838745,3.33526606616346e-05,7.64211978281314,-4.34492862277531,0.363597356491579,0.269503365856156,0.926670641029652,102,0.242104130159842,119,26.6982609961394,48
"63","1",0.407387600968284,0.281533122776822,0.590300464976174,0.988821849658691,13.8355362256025,18.3216657585694,3.99430319609466,0.856944444444444,8.27074398275477,-2.40343953545376,0.906925279840083,2.21674461710352,0.493714314382206,0.321345247001984,0.123852350312037,0.0763529263108528,0.935542834456391,0.288000257965595,0.0885826630979662,0.610902299585575,0.0304082831500574,0.99761418428837,0.750278787438892,0.531998066218133,0.598947938682217,-13.8335585589248,0.882544173079002,8.34421681354411e-06,4.37735201434057,-6.48946321550916,0.489314662606405,0.331977274508902,1.0597559242909,100,0.358272493099305,116,64.1815449804744,48
"64","1",0.254617250605177,0.215773188044001,0.53535906608966,0.935322719229153,12.0128084536313,13.7451756303832,4.17408297489074,0.863888888888889,9.02135781500357,-2.36821094226944,0.919275777030646,2.27111012236673,0.529729064783395,0.486492872244485,0.0630135739430031,0.0516668224596445,1.04157539093033,0.329423547386698,0.0304485804142528,0.608770755581355,0.264430872968694,0.996405067453846,0.745777087217563,0.64522034812028,1.2449038780314,-15.9647701961926,0.811499484769542,2.67177599415592e-05,6.88306243170518,-4.94402940227978,0.571345838739452,0.613197927508686,0.632824728727544,106,0.215804901632695,121,31.1028321205737,48
"65","1",0.356464150847248,0.292311520433588,0.565710406281639,0.941245114783594,9.54336392986407,8.84351581554104,4.26629408029704,0.8875,5.69318137454107,-1.59119178534691,0.920413968162493,2.69918777928836,0.304873977059091,0.207253050549122,-0.115789127511407,0.0732877788556182,0.963304531512094,0.129519218972349,0.0242400304933576,0.586134497906666,0.00693147748757469,0.995750076053152,0.802877103222266,0.535036308480284,1.13800425087873,-18.0795953728066,0.792011620351251,5.12404132414154e-05,6.33245751660301,-5.37018146371141,0.457497294494596,0.402318841455081,1.0746568931776,105,0.286968489116375,117,15.6646940715292,48
"66","1",0.356464150847248,0.313875836684495,0.562290920644779,0.915766024449509,9.42993251151247,6.58803757385862,4.23314253344362,0.873611111111111,5.37557044850906,-1.50105549653865,0.92965648484732,2.44989545033825,0.589404391038826,0.676150835075888,-0.127457083270381,0.0781402157109905,1.13935498011812,0.446672137782671,0.048918267954559,0.606455008003615,0.0602745046563337,0.996046555332992,0.74162210651583,0.645876272364842,0.97056785030805,-22.1160765134796,0.754858877922881,4.68748248423316e-05,5.57654348797235,-4.62818855877672,0.667524141905657,0.92733645848222,1.37424196747135,105,0.488994664894813,110,12.6842057683962,48
"67","1",0.203693800484142,0.273433846664305,0.519444605762621,0.916320034156593,9.55053418429714,11.8699678343483,4.2772017721881,0.872222222222222,6.62663227794132,-1.98418762116437,0.894875204219382,2.58246581977628,0.223686490992063,0.0935173545276777,0.0656901389650616,0.0290994995048177,0.833794602479161,0.0583732458563849,0.0179778251891923,0.565608020183801,0.0510594142770811,0.995615050191669,0.791289421359853,0.515389669819542,1.27358072198556,-13.692608349498,0.843114997750897,2.48661788403011e-05,6.88826271203395,-5.77668104101325,0.277608007440581,0.145299584949943,1.006495834423,122,0.267928992568214,118,18.1763644805148,48
"68","1",0.305540700726213,0.290995958161737,0.551047528240145,0.969453643883752,9.85031768032061,9.317548220322,4.09597093590284,0.868055555555556,5.23890229582515,-1.62407016543857,0.934888401800444,2.97177197651997,0.509271783932882,0.604673351351473,-0.127468529150198,0.158068388773758,1.06206279801668,0.388960565317795,0.0927354753794493,0.578872076064649,0.227211470765187,0.997568925467225,0.812551210669375,0.52997120835041,1.72591980580346,-17.3340040890328,0.794487550815796,4.14555275575359e-05,8.37700162931965,-2.193705929388,0.62856029380595,0.92077162451254,0.831930576850634,108,1.27664747807444,2,13.1786560006747,48
"69","1",0.203693800484142,0.237137312232919,0.493448759718211,0.937665349137923,9.45474892369993,7.03926797057721,3.96989186775862,0.872222222222222,3.23026646739099,-1.2178351162149,0.95543593255631,4.09003263088816,0.513470454715143,0.406346003462854,0.122019256036968,0.0762720441069081,1.13958479536417,0.312811084038002,0.0633356686611401,0.524538736339604,0.107144839535209,0.996968554353859,0.89424383964418,0.148995375253076,1.96482735968589,-10.1639998433104,0.876977874380357,1.43709157685576e-05,9.2582063426776,-3.41270265678872,0.482314097902295,0.417117287767297,0.796559234998953,99,0.159814068926115,104,10.2578781361475,48
"70","1",0.356464150847248,0.399448297094979,0.579247556710939,0.963799354757351,9.77831822449614,13.1967143237798,4.20476479616791,0.854166666666667,8.49307434713754,-2.32016890141814,0.904704929403353,2.33826499281806,0.22652890218778,0.0951516396839279,0.0397229188449862,0.0291871315077779,0.917396983482795,0.0561879068047295,0.0155619287526357,0.59927873428328,0.0615280956373289,0.996273993947143,0.777903722916077,0.636751063691462,1.1292104890904,-13.9965072567081,0.864879101218524,1.34602566108635e-05,6.62034278148699,-5.86844733612681,0.325309852038838,0.177282994273214,1.03828889564735,122,0.230041376710874,109,17.2480238676055,48
"71","1",0.356464150847248,0.189362928909964,0.540395404992326,0.94976528615366,10.4086758025087,8.37365136684884,4.15444018726198,0.869444444444444,4.72057720879392,-1.67248259411195,0.928039865145549,3.02459320089289,0.581364751622487,0.482384815194066,0.0594254514227745,0.0955823389447496,0.947330050019927,0.355997745337647,0.0279804575600986,0.595119213083106,0.383820155360525,0.998675375104239,0.840681880676976,0.170990892959942,0.832051729657056,-8.52388312563469,0.884186614103406,7.88206105457669e-06,4.63067318054166,-7.56747150268078,0.632518909899777,0.744021211335417,0.890041951210554,99,0.338101647421737,119,33.2171551685757,48
"72","1",0.407387600968284,0.30367171825144,0.588015218526438,0.902163625698892,14.4287248575234,13.8535300800828,4.03481358105752,0.870833333333333,6.56095186324159,-1.9424097054096,0.925708490892948,2.2947266836284,0.502060330072395,0.343420776537125,0.107312387942444,0.0848095593289601,1.09134445553011,0.284053991739442,0.0609440091206179,0.626765186052005,0.0324171337663399,0.997712291230221,0.758439786244273,0.444884752316799,0.530467571451779,-13.4474415669822,0.857406177748491,1.03229489236228e-05,3.60041022716323,-7.25622246455674,0.609516763623729,0.627201220895905,1.0838978430428,101,0.436412243494853,121,49.1189114677467,48
"73","1",0.254617250605177,0.306404905691184,0.536465719876885,0.917777310453268,9.45610707678035,6.57744504124547,4.05290326592916,0.880555555555556,4.24273207244575,-1.20415142540567,0.947158949558614,2.96308775816973,0.633581431029437,0.817028563931006,-0.138684688578705,0.114172194776188,1.30838811894121,0.516942109700344,0.0881458051656955,0.590822745014511,0.129630360506638,0.996892114385366,0.769672425791306,0.545143758097986,1.27103256535321,-17.435416125154,0.799612641094584,2.90315860687363e-05,6.59110815556525,-3.70383254859514,0.759828994212011,1.23829166740239,1.01484053884699,103,0.347039286128763,119,14.8278906134564,48
"74","1",0.458311051089319,0.322308493476671,0.579022463910233,0.948092531553204,8.84489551586609,2.42635251873801,4.28375875883313,0.868055555555556,3.28671121874608,-1.01131642118473,0.913710230002555,2.31882123309513,0.566884766641564,0.59123552971199,-0.0739887519330434,0.121673845098348,1.05469411909035,0.433086958939864,0.073334344934452,0.604531636626704,0.272732528142576,0.995975403017439,0.698435934539687,0.858130656409561,1.26745786289813,-24.93850947035,0.727052134436447,4.49738866477808e-05,6.29813664626739,-2.19063723717277,0.712607345698488,1.04481564740465,1.07886763973131,107,1.06398572502893,2,9.98442359484861,48
"75","1",0.254617250605177,0.277603267375201,0.53818062490434,0.824582839815602,9.67865633336661,7.97141755235883,4.29654682847567,0.906944444444444,6.14457647694614,-1.66856758250808,0.913876410351586,2.38589445249751,0.498361606695293,0.356971179107988,0.202642999288297,0.0720371712344825,1.04167055055751,0.317944639233941,0.0797606354160249,0.590823675089319,0.261567182712848,0.995527403863223,0.781664175982013,0.74996045893147,1.08302815361991,-22.3532692967086,0.756614952474451,6.96748259783371e-05,6.38942237294633,-3.71130126090721,0.499414220297686,0.444931372103204,1.28209244065584,101,1.19093823176768,2,14.68068967607,48
"76","1",0.356464150847248,0.263800061949599,0.54953468086577,0.89423167867886,8.86120302643878,1.9450419503243,4.19371911990003,0.888888888888889,3.08637850266844,-0.865802301813732,0.920086473588294,2.58969524113229,0.604155074891995,0.663237940678163,-0.172086530671043,0.124095144872249,1.03472808130945,0.466115999881388,0.0771236177125546,0.583609992108014,0.264238380881324,0.996835062360638,0.693097073237677,0.849298520566293,1.32045808401125,-23.2905868005807,0.766342936151858,4.61731151052097e-05,6.87579782386549,-2.22810533111736,0.670538761623762,0.887902853208787,1.25349739655017,106,0.717121698255628,2,8.85360360658606,48
"77","1",0.356464150847248,0.296724123698946,0.53659423493383,0.880443235057833,9.05272589046109,1.47077198077882,4.16114307332557,0.881944444444444,2.93442386019807,-0.762812245063616,0.929830662131556,2.88268250459605,0.659825017808475,0.819903295147452,-0.0862845509634726,0.103051889449079,1.05746875208897,0.566015485192939,0.0847084407292822,0.577092281716084,0.168731594913171,0.996951148863254,0.712570274859207,0.790307256005752,1.39000716683099,-21.6966225172681,0.783829396764137,3.92330440413584e-05,7.00793577498125,-2.59232943713409,0.700864119961851,1.00158816419794,1.21343397388334,104,0.471406113625339,2,11.9194394123902,48
"78","1",0.407387600968284,0.329909241952593,0.575109981320278,0.952119636237483,12.4192139373023,24.1224339532594,4.23335951834687,0.866666666666667,6.54418525728215,-2.22623586340945,0.921396040485891,2.38733440250916,0.304347635722101,0.261293501390859,-0.124821637226677,0.0911611584244369,1.01700611385487,0.174090269488323,0.0674670539839904,0.58638572945092,0.107157618481129,0.997424495209025,0.781662084429615,0.802689664490857,0.286677871166306,-16.3725561431948,0.814320584732943,4.25216760246012e-05,0.689106240044083,-7.29785228276079,0.436406470086703,0.431750550554737,1.38173282303139,103,0.472441995453202,108,26.1142296627267,48
"79","1",0.407387600968284,0.30465132185775,0.575820377739191,0.957136790257445,11.9689150847369,22.4405715016975,4.20398490151964,0.863888888888889,8.74338222043839,-2.5452992757249,0.923522021185996,2.31134573607279,0.534957352022757,0.533994224818448,-0.0935332065727208,0.0886886702818423,1.17976759919064,0.393738241743465,0.0431260144969921,0.598489755226504,0.113728367063553,0.996045864836401,0.76635296489506,0.915296624300718,0.457254744804856,-21.5352044990306,0.748162414616501,7.46278946326985e-05,2.88338096896121,-6.51062628789818,0.581851302864721,0.719214202325436,1.16087655264567,105,0.695134017309083,2,23.5349083231951,48
"80","1",0.458311051089319,0.280521376476731,0.583346274137136,0.901721250574885,12.6437589931708,17.0676381699213,4.53826282019925,0.870833333333333,9.37727971909087,-2.62140722414913,0.84181707956334,1.56623355111628,0.520314716118766,0.360522569816484,0.229636536402301,0.0769006614938017,0.759580210445222,0.342056715527332,0.0575720736745111,0.638810380124676,0.140909942285252,0.995389459940028,0.599711504495068,1.2367170876248,0.73383213750043,-20.8235611537026,0.705106040871628,7.62752522356402e-05,4.413548298551,-5.48503942410653,0.485720385087431,0.383193439092109,0.943302498136113,102,0.253569354426737,117,27.0710488005258,48
"81","1",0.356464150847248,0.234526008918255,0.546079909774172,0.904561737117001,7.99268326346686,-5.94065300247838,3.8125833749419,0.879166666666667,3.24720541190881,-0.760185707158876,0.960610618743334,3.36195331706524,0.608742797073379,0.765478312356927,-0.00294150271701362,0.0917812310677222,1.35586132196761,0.44705175118543,0.0125773489661139,0.591502355504191,0.0432308238765928,0.997781673580384,0.845712123734807,0.14966583846037,1.12004687202891,-11.1065741440925,0.879083963731082,6.28265372201573e-06,6.11987936852969,-5.93688822208311,0.709994625837485,1.08157592186549,1.00475315540366,98,0.410559744801446,121,16.1968007786512,48
"82","1",0.305540700726213,0.259099622893223,0.558852976358196,0.950600978434222,10.7796362036085,4.96111033182666,4.07508544629207,0.863888888888889,4.75164500488252,-1.58508357764847,0.925408353984288,2.98106522047146,0.526861711447476,0.396200365617383,-0.0747221037534739,0.0939643961058699,0.937079873888562,0.291489201960768,0.0251151740448699,0.584532778217001,0.24510631910415,0.998053446610343,0.833167303020319,0.202848931971575,1.08360884480651,-9.417904861288,0.89241691197411,6.47750431472219e-06,5.92811903284185,-6.68747717205372,0.59439378695518,0.589030324358262,0.976749511166389,100,0.241492882498423,119,25.3824316496719,48
"83","1",0.203693800484142,0.263177006571153,0.555946551484067,0.923566603919567,10.2678903744975,7.65603583032531,4.30464518486643,0.880555555555556,5.3075499190295,-1.64053570064085,0.909980152768789,2.7049985835362,0.448466209704046,0.301164019848665,0.316126939566626,0.147571000635259,0.887931657890844,0.246257328330558,0.164419756238768,0.589230210141673,0.015004792850831,0.995885519915284,0.814340325998222,0.317097990132428,1.06328930541896,-16.2509258019922,0.802925302331776,3.40271189655971e-05,6.08390901808537,-5.2578941898278,0.462200285932105,0.403802044611659,1.17884954649076,101,0.318545941250868,116,18.6068723752311,48
"84","1",0.356464150847248,0.271818064272165,0.540270435724495,0.86922944403986,8.96485683094595,6.96944922800426,4.45800035012833,0.888888888888889,4.28816330980551,-1.39355834937639,0.887709219243416,2.20304039311025,0.501540988787325,0.414779224232813,0.106271841781935,0.0853555846400908,0.866851085465316,0.325852217098844,0.0865934387941762,0.591701795435574,0.37271459013996,0.994764054317634,0.70581801372867,1.12320573526858,1.02047512820807,-28.6764361592128,0.721166680763655,5.95063699307919e-05,5.62309291251646,-3.48794699284932,0.57596161524698,0.638049433512077,1.3129639631225,121,0.539538132580234,3,11.2212247411808,48
"85","1",0.458311051089319,0.42500427707779,0.595356319377054,0.899639098231399,10.3760648993414,13.9587331229521,4.41501681965678,0.880555555555556,2.14857377535078,-0.866612938116954,0.881403334622334,1.81128147777299,0.619255528952866,0.668208329959545,-0.175619336488018,0.120262949583226,0.938326445015943,0.464680671611752,0.0878113103774382,0.599049457734304,1.16555503890221,0.996071902140302,0.566536761863539,1.74914346229464,0.216756877799767,-34.4979270598671,0.702226467992179,7.42738510291506e-05,-1.02144472874102,-4.18529082811019,0.708187798607587,0.949017140925031,1.72037668245031,106,0.825505573501233,5,6.32422735749659,48
"86","1",0.305540700726213,0.234179840462727,0.520105216545389,0.884671415432728,12.6761094946898,18.1231901356061,3.73862956222369,0.879166666666667,3.72152070363451,-1.63850582989634,0.956300182331802,4.28462375641867,0.526560380469076,0.398356879961063,0.00795508923844469,0.0878037880101207,1.05799835322186,0.317165387277148,0.0538621664866745,0.536982242219244,0.00470964666034438,0.99856738418048,0.948037922141989,0.039736355181375,1.24356177503229,-6.97093108152131,0.942056273365245,1.50174416284169e-06,6.54316616335112,-8.18315749870556,0.644228218426113,0.888383731497101,0.607255059481854,99,0.493806413659288,119,24.9221219268805,48
"87","1",0.305540700726213,0.328302054116015,0.589613081328174,0.930602754359393,11.343200896424,14.8077849041881,4.10092108835221,0.876388888888889,7.30162795049032,-1.97673623264074,0.94389390844833,2.65876769365517,0.516230459240679,0.451197912522808,-0.0533519314671923,0.126450629014667,1.23883481644664,0.309375405922464,0.0491189388689243,0.603647434012126,0.115942746470191,0.996752357071944,0.825980452636254,0.437575612886704,0.70649757784949,-15.7297385971229,0.815512162353095,3.28005931932748e-05,4.88852276461671,-5.35003440487145,0.596923178767866,0.652552908072301,1.08784979448766,120,0.352536659090031,114,14.3587630622963,48
"88","1",0.254617250605177,0.293291149794534,0.47983726817318,0.940916781492635,10.1339808347645,7.08842429775814,4.0790071302726,0.868055555555556,3.27517912196272,-1.20314591950002,0.959549806637348,4.09987449740437,0.504768090868143,0.395765222584118,0.0927363509025347,0.0805475991694512,1.32444394769706,0.306882741794595,0.0344503044384077,0.534093579706362,0.315640986564074,0.998400653703281,0.935087893481663,0.15419547676754,2.02115915229314,-7.14694258423596,0.913002533745059,8.95547282010164e-06,9.54681400814904,-3.16890520046335,0.51130555243973,0.463537673305983,0.903535240906351,121,0.249076809832183,118,10.362006706093,48
"89","1",0.203693800484142,0.276029378973116,0.553134767374321,0.95830598067473,10.2881574969123,12.8806034131893,4.21218414021929,0.875,6.49343649177756,-1.97432556640953,0.928141252094223,2.89120606704954,0.451711829730343,0.319078839679665,0.160899154622828,0.0491471971430133,0.956950740201508,0.220023942987443,0.0334435498702099,0.579817390261492,0.0488626950526323,0.996746324714305,0.856519141576251,0.272040258397769,0.949135384016182,-13.4850989818667,0.835854816388796,2.46844227731045e-05,5.57130942150218,-6.57414631259465,0.49120748662585,0.44572803930041,1.02690061110896,102,0.358368087448753,116,22.1430772813603,48
"90","1",0.203693800484142,0.24379571121905,0.500087112301396,0.869949698394776,9.37653425976822,7.68645442360209,3.98403555798894,0.894444444444444,5.11423462948983,-1.57860738160151,0.958710790880992,3.43724808378724,0.513779514772805,0.497356728073509,-0.0743114448399963,0.106955450180088,1.32805570178664,0.31215698782157,0.100677565134123,0.569481977867715,0.137267704217251,0.997446705706089,0.917625297444628,0.181217165974278,1.33967878653912,-9.98835268581067,0.889134084740993,1.51432394541623e-05,7.52750563831488,-4.94299064443545,0.547512287376165,0.580159089894673,1.09833854212436,101,0.239118607437744,117,15.171985056131,48
"91","1",0.305540700726213,0.258936547111877,0.527604242225433,0.932216598365586,9.5199657798633,8.38711529994205,4.33841340162604,0.877777777777778,6.17157881846535,-1.81379218158942,0.905017622059463,2.73009372968009,0.283794366742504,0.151910083973088,0.0713458394235238,0.021323338296811,0.862496393316479,0.0959220146983759,0.0122136210717137,0.568907454421344,0.00572888152635927,0.995079074579557,0.808074690708799,0.511526663160592,1.40988966716953,-16.7016907259196,0.803990551071755,4.51093814227337e-05,7.28493046097778,-4.86447542337053,0.355321620256801,0.262922018031639,1.05997317617592,103,0.243740620886282,108,17.0278932914556,48
"92","1",0.407387600968284,0.471785539578157,0.626405777047808,0.997217712017863,7.8425401782982,-16.1485280206513,4.27298768022969,0.855555555555556,0.937987323633993,0.704931798768388,0.898239944692657,4.41413990018679,-0.225758583428955,0.116856118887139,-0.469656430350362,0.283651460577972,0.920607380968935,0.0786488509115875,0.22652841140473,0.579378391230628,0.0693537849191007,0.995589188186398,0.867762023954078,0.0969268100685174,1.89397840982337,-14.9403744418419,0.865367745266274,1.33113165355975e-05,8.64846596304726,-0.88263560953337,0.194055889131221,0.205393063174485,1.7468501793333,2,0.275451952479931,83,3.89310080410657,48
"93","1",0.407387600968284,0.393506010373982,0.600212599602494,0.949117726317235,12.3576448620693,16.7238504089665,4.28220859541314,0.869444444444444,8.47043702395306,-2.27044473405635,0.888833205004446,1.82905915899946,0.500295543543158,0.497632187708031,-0.0788876781549691,0.116854202747492,0.917693051709026,0.325488086647141,0.0652914743113139,0.64575084475733,0.784266601005831,0.995796359647783,0.651284202361947,1.43607369924102,0.81648163020609,-28.8131956247457,0.680674451669985,0.000116424343163318,5.30913711045969,-3.15049320700623,0.600624765898327,0.783920051154311,1.23792167435935,107,0.470702711133327,111,17.7436502032078,48
"94","1",0.254617250605177,0.177005068623512,0.514375650844306,0.951212723045362,10.4185652896409,7.50379947187843,4.13191053217518,0.8625,6.34619483235319,-1.4033522352318,0.928127302188118,2.35701325185975,0.52753156813281,0.596939716550923,0.00416047905387477,0.126638493369714,1.14338460614033,0.350035380355065,0.0425420892828333,0.611097357834737,0.260630632863411,0.996453725266833,0.713263511302194,0.831298540358228,1.39105705512032,-16.4341496004865,0.805771077489237,2.38278845631734e-05,7.0998884312782,-4.2375939558803,0.670524629040897,0.917321650638468,0.677750058952242,122,0.422043616365621,120,21.0274392651827,48
"95","1",0.305540700726213,0.215878787119673,0.550526697413218,0.937116280030834,9.00782821398514,8.59192133246612,4.18969986337105,0.876388888888889,5.15201006191538,-1.60271799329349,0.938061390027483,3.10513186114246,0.409497676802143,0.366596685977976,-0.10454953907763,0.122870728865862,1.0521018589144,0.228503781416281,0.051544206464988,0.570160627732625,0.00732496261631908,0.996121327584492,0.854461961086978,0.377862045376498,1.28115266044862,-16.5886504314505,0.817383359568111,3.8695064293252e-05,6.79770365177511,-5.2180583664762,0.531326232109661,0.588170895502341,1.17087427487529,104,0.30558036112765,108,15.3225716428267,48
"96","1",0.407387600968284,0.411275916318243,0.604566469694986,0.886389807464026,8.74450660698494,-5.10626853730449,4.05239594896097,0.875,3.53648746421773,-0.770942652423877,0.945776004189713,3.36459448153312,0.284031299290459,0.164914172589187,-0.0494523573495387,0.0721137375514709,1.07540411326445,0.102629645406791,0.0245277642073777,0.606470293825297,0.0243990608458318,0.996874380173076,0.855221825601437,0.143171256664165,1.51936100671214,-11.1550197651143,0.889761402907398,7.42033209774905e-06,8.01873628329754,-3.29617060164499,0.467910283886864,0.416015772941622,0.999527016400334,120,0.38543842171555,117,18.6099343961679,48
"97","1",0.356464150847248,0.227666622228886,0.524423709186413,0.913065256957263,11.2119283747712,14.6698403433892,4.12533845410855,0.877777777777778,7.00518816796494,-2.1426139694928,0.942933855244462,3.16942962513693,0.407177838365971,0.36776122346628,-0.0725552932878781,0.0884420099043019,1.16720642385307,0.236404549744976,0.0434372789762849,0.565100095914641,0.0768550982912568,0.996740629629673,0.842950329251811,0.394797476514911,1.59460055167026,-13.8663683058004,0.830690578615183,3.23382522773944e-05,7.9281507209504,-5.11989786990145,0.519231795235683,0.592608470565557,0.798250511522261,106,0.170085140915747,110,14.3535724324432,48
"98","1",0.458311051089319,0.281822929879417,0.535300460262409,0.974217587875152,9.70725408558553,4.35382557708591,4.14400848833081,0.854166666666667,3.34576627490129,-0.979728474210644,0.906650085913538,2.53701138809626,0.574580413391855,0.591047886646139,-0.127857638100498,0.0715949389539542,0.931418163143656,0.393508697215819,0.0417289231664226,0.583554788840735,0.396529061936394,0.99748750062968,0.728265061052243,0.945863030564356,1.6225937089476,-21.5333646379105,0.7680518593798,4.89612211255245e-05,7.78520965744241,-0.473829277289258,0.684593683540586,0.965828862315073,1.00134511253937,108,1.15665957763422,2,9.52364139144199,48
"99","1",0.356464150847248,0.198492871707379,0.454339721150764,0.863754617818524,9.62643827829708,4.1021681471075,3.96209871202692,0.888888888888889,4.16062859743946,-1.38618526088216,0.962846460014624,3.86351500067813,0.482465883383117,0.449492845589412,0.0267349183311778,0.0681971855042098,1.29469463209374,0.285235859715628,0.0348071786596652,0.554190035347709,0.0319363447379026,0.99798989081696,0.950554196656957,0.0857574643493909,1.69687561258013,-8.49770767771585,0.931659291140336,3.25298094888689e-06,8.61944536407335,-4.68242142130567,0.581235366779375,0.658507041602469,0.951370468024823,101,0.192471046129818,117,11.5489545692379,48
"100","1",0.356464150847248,0.350799451276248,0.629070331282102,0.932006972292928,12.9591330368029,25.8373153184382,4.28881239119761,0.866666666666667,4.61077423499307,-1.84035346134642,0.91382852861667,2.21652741367896,0.424263388526393,0.342626842511394,-0.0147891807049295,0.0397991622384487,0.99152397052784,0.231472153983015,0.0206338992643044,0.624791815715926,0.0703082537338026,0.997830399024344,0.763640295530679,0.558073665986831,0.272070658577025,-17.5671872124183,0.767504837463866,4.09857622197843e-05,-0.594665252606904,-6.78849591190548,0.568899312425687,0.699016028299934,1.424642035089,102,0.644554167750723,114,31.8331960921733,48
"101","1",0.254617250605177,0.333385401444871,0.548108136409323,0.898536260438341,9.42224714765843,8.54029420143924,4.39115612471467,0.880555555555556,6.77251027011552,-1.75569714395036,0.908225709434647,2.4046846192829,0.443702181227881,0.321140683135039,0.00826248123035982,0.112547008618861,0.94907030410367,0.232040572614773,0.0299436285774431,0.595272126242873,0.101127274443798,0.995070098990913,0.747360013634004,0.848224046221514,1.05666128286951,-21.8287753715419,0.73709018174119,6.87740986622608e-05,5.90864051265583,-4.48416037123197,0.557509774420274,0.589048516546367,1.08061718859228,100,0.529235275713715,2,11.8777473823096,48
"102","1",0.305540700726213,0.25200477206601,0.539512161690086,0.921593042525332,9.12295335797272,5.87210911502034,4.32269814517849,0.877777777777778,5.18809711628388,-1.49237941489979,0.901348586753848,2.68128391910882,0.181513465248125,0.0817088492670583,-0.0265141147780984,0.020789139567109,0.856658583955987,0.0390348122701179,0.0074482291349735,0.578323974260563,0.0167768140530709,0.995320709601455,0.800052383239096,0.462022405271764,1.39260153108709,-15.3133180171289,0.819107343634443,2.97656410053924e-05,7.25023904584063,-4.72434610222948,0.350530280564925,0.253632355671418,1.08931809733829,103,0.308303050079322,107,17.1586481188756,48
"103","1",0.152770350363106,0.19503115124076,0.43636820987412,0.867790103358318,9.18544346614095,7.82573492694585,3.90356094907329,0.894444444444444,2.3320863347229,-0.984315001406957,0.965942143769278,4.59958953667574,0.458395581784696,0.390128588482825,0.0212005691691061,0.0526155301670409,1.29804243603948,0.269597050232949,0.0242416450198165,0.505499860692196,0.236718480201659,0.998487902425199,0.951068058738548,0.119111278233377,2.23815738003026,-8.35799876876705,0.902269416603152,1.27962963700564e-05,10.0000474419112,-2.41465215432314,0.500649235332791,0.486858738220384,0.69075200325536,121,0.164773650485811,122,7.60155863025542,48
"104","1",0.305540700726213,0.414368831864819,0.603544162953004,0.959574032986906,8.94312141527571,4.98203340450744,4.22614218573597,0.866666666666667,4.56219271326987,-1.21251762788162,0.928227025519821,2.66574064064255,0.388270331013966,0.23227473606489,-0.0517157071472493,0.116073483970591,1.08264252290056,0.197563661356977,0.082905718756413,0.60745634714506,0.158584966671829,0.996049497275509,0.812220363167003,0.454258127947801,1.1654202019053,-16.165289952147,0.81071478554649,3.26405072049535e-05,6.66021701922122,-4.34843381207891,0.502473998019804,0.418345482159223,1.37115236702492,102,0.350897035324961,108,11.7529213326046,48
"105","1",0.254617250605177,0.270946482990835,0.540692884913925,0.914184146709662,10.7706749222508,16.0432031249112,4.27139491924768,0.869444444444444,8.04311045949242,-2.27405795067109,0.908902398666874,2.2633933595588,0.435525576108108,0.379692731280526,0.00643945992581402,0.0961733528626996,0.956767350388918,0.229743416584193,0.0246930775444742,0.60536667920159,0.164880920809557,0.995975403017439,0.728950415473017,0.678705313840514,1.22658254616535,-16.1381419631669,0.802434574559512,3.14164649783883e-05,6.57301189097667,-5.5914202331701,0.536994966157862,0.578569609825247,0.64266393292973,33,0.0965356245338834,109,25.7173517777878,48
"106","1",0.203693800484142,0.236652987920328,0.527265141320516,0.948695743284593,9.12834707630106,7.47047828976467,4.21831906483951,0.870833333333333,4.99520981960092,-1.51324603350866,0.926147300805143,2.88633327946607,0.308761777145567,0.163141043092617,0.128994790905236,0.0373897093961975,0.962518173201604,0.116347835618055,0.0356183352467575,0.576409462646693,0.165106302957813,0.995893281127534,0.849401549801659,0.354627309172077,1.2913806169286,-15.8570732897917,0.826350334533127,3.50533925074158e-05,7.20313886688482,-4.52550707772875,0.376920096945439,0.281148506818299,1.236451604915,121,0.348620948250031,122,15.4997073970974,48
"107","1",0.509234501210355,0.335159607559017,0.596802936306987,0.930118976353413,10.1005797620203,12.4977503626972,4.31000613829251,0.888888888888889,2.7673251353106,-1.22317258973513,0.917875733380317,2.62967197160229,0.311438721526508,0.191928793093403,-0.0473561482020402,0.0204381616930823,0.929574048629554,0.112822465319968,0.00532291132048244,0.589106267482877,0.00859804229723939,0.997247673061623,0.816730114823216,0.450137214769582,0.302164955159973,-17.6445092443963,0.80076869024095,3.79217973434393e-05,1.46986951359629,-6.19229922659644,0.46626926734178,0.4277526330307,1.61352882061889,101,0.645137946062229,107,7.95139327005387,48
"108","1",0.611081401452426,0.310856521476958,0.60394160525336,0.947260429132792,9.69468823089882,0.614905405064243,4.03130903249314,0.8625,4.81822967395937,-1.26024874738282,0.941528379372929,2.73074623152267,0.473447851020513,0.441419746063957,-0.0921854983953216,0.0811741820930238,1.1604990054736,0.304741524335204,0.0369565916291108,0.610057863766319,0.0981755308048752,0.99748750062968,0.809961855980598,0.283762238413252,0.804541634011975,-13.350189745302,0.836609771529266,1.47809653693668e-05,4.84401324272198,-6.59451982971552,0.647774741405979,0.909375449386515,1.13304918496584,101,0.350855816250768,121,17.1223822702277,48
"109","1",0.407387600968284,0.290622614901908,0.576356286530975,0.999187581798302,10.7552363930774,13.8825182651945,4.24763328489054,0.858333333333333,10.2039810000196,-2.62920388468782,0.902952210135681,2.26641656940762,0.292185798650703,0.139651848375294,0.170904986189492,0.0560567748782708,0.946234375092795,0.118980878638228,0.0466337943572608,0.605014400746051,0.130465315928928,0.996026761339365,0.756654868394407,0.796029587305879,1.3540874800305,-14.8323318376222,0.829517730274076,2.86270812024074e-05,7.46364980674969,-4.77758114070373,0.313663975186012,0.180649909836517,0.797815483906728,105,0.167774090160329,109,27.1030444103362,48
"110","1",0.254617250605177,0.23660500628342,0.525047082836401,0.907038645731804,9.70497614672297,6.04842886277523,4.19937786065673,0.877777777777778,4.33045088307963,-1.36192164986838,0.927492042943137,3.00479221482483,0.301826149723576,0.193021156793096,0.0981781853421498,0.0461469986602469,0.939034233558673,0.110610628811076,0.0309434006727758,0.581267270739191,0.0329204567474291,0.995975403017439,0.868442666969054,0.258138936864943,1.32277752498883,-15.8513313236818,0.828580266502256,2.81753520026567e-05,7.19768208347618,-4.49302281344482,0.422236922487947,0.394279490035319,1.22163824469702,122,0.385889283580251,118,16.7234798656187,48
"111","1",0.509234501210355,0.263808687230342,0.561419338676785,0.986077376407822,12.5091237548969,9.477336380841,4.00290186276786,0.869444444444444,9.97920087521061,-2.65084356276124,0.942740055435295,2.44185413825071,0.514731719810928,0.627985988690955,-0.0949167275010047,0.0853255610475008,1.29964268793798,0.293343031789079,0.038470092670109,0.667269583369372,0.179624015961312,0.997630275130619,0.870022561615936,0.300252033559104,0.575653761041234,-16.1193941475554,0.799709394203258,2.00463302516512e-05,5.01636563347385,-2.28014583340544,0.707060080202909,1.11954455395964,0.815936814343241,111,0.177988542428826,7,59.1445886732606,48
"112","1",0.407387600968284,0.32260915732945,0.58499861639628,0.976842462396203,13.2093703589656,23.9865478470864,4.2752806567288,0.856944444444444,11.9051542162377,-3.10198538269924,0.896060590235138,1.98547391085836,0.35218949305085,0.178630153110142,0.193402799402235,0.0545225075506252,0.915929884395403,0.152627816222407,0.0559938888230198,0.635402599717799,0.0121980623669739,0.995870730085368,0.726340501192211,0.911038463447036,0.722808676310389,-16.4258337084941,0.808153543385086,3.61615649363853e-05,4.98810292211217,-6.1447399751351,0.37869039207918,0.260396859735245,0.968934717358286,121,0.261094668573168,117,33.8176505642756,48
"113","1",0.356464150847248,0.282494521380143,0.524618862566729,0.904422864221587,10.1711523849665,12.8992309722514,4.15408293643762,0.873611111111111,6.92564124935007,-2.07057178235781,0.900302498935797,2.58743405746859,0.419096223790698,0.231485714117492,0.15447458821331,0.0690975114527707,0.85746334697629,0.192314341609225,0.0369358420542477,0.561929510389912,0.182892344632006,0.99645642828993,0.770898578252635,0.529522644134158,1.31601663679276,-12.156208382857,0.86385774387162,1.56071353073116e-05,6.92776767913266,-6.14718651948878,0.411565331144416,0.247416374181214,0.875204506822396,103,0.189293493328612,116,19.061099948047,48
"114","1",0.407387600968284,0.302836366978611,0.566717132919601,0.895829948711549,11.194772355049,16.7465852087037,4.34127842048121,0.8875,11.089665850777,-2.77371932796338,0.917147669119262,2.12769991146068,0.560891155259583,0.598295066489891,0.0628170432616761,0.0867840150755821,1.07805971219723,0.368228993702411,0.048249809703409,0.620334583876801,0.219930651691632,0.995559135962915,0.727580522089777,1.04942435751714,0.942257710020104,-22.9087282341506,0.717228064062527,7.60237331002884e-05,5.52358159777633,-4.44115927949641,0.664774942937578,0.930768657141485,1.06441718800751,121,0.300147481194896,119,17.7844111980674,48
"115","1",0.356464150847248,0.282984014884585,0.549633102212869,0.877751125399784,8.96134925436151,9.55574554993499,4.33267886693323,0.8875,8.02643867444802,-2.29069098787129,0.911633605965839,2.65068170779463,0.303255021543897,0.160751184640309,-0.190938588336245,0.109257057012888,0.966703817192341,0.133577463814437,0.175938017749319,0.625288498902191,0.125817462690072,0.996809153290635,0.830078365560792,0.324071929425533,0.181169811090977,-14.9742950537753,0.834684625544325,1.72463181210472e-05,0.702921721251055,-3.82482473015602,0.657905914920256,0.851220133415365,1.1254768107186,115,0.38648990005467,107,14.8709404992087,48
"116","1",0.356464150847248,0.246822083501252,0.564397474781143,0.923960331568812,10.1364408459906,5.55959473360971,4.17467239795386,0.863888888888889,2.55999097358936,-1.03648648298455,0.924511658841249,2.13705215404166,0.508328571856183,0.57600749916637,-0.104031589107182,0.0887993706952554,1.19802802665025,0.346850697561087,0.0435916429339161,0.605479002352361,0.474522824256435,0.996901927894482,0.62706713014525,1.63340221809731,0.996551972596951,-15.3053443193247,0.815917520750068,1.46788295381909e-05,5.10542101425754,-5.50912020255539,0.668831785182814,0.887717092119956,0.764205939656783,102,0.0989416389871186,106,12.9981066547046,48
"117","1",0.254617250605177,0.27594771119929,0.518007650323923,0.947586884988883,9.19069511740619,7.44241860732997,4.03747211893787,0.872222222222222,2.02158938280501,-0.825384601174689,0.944954039379062,3.97662692714995,0.48432229448328,0.454382920188391,-0.0767799009548068,0.138947066452708,1.00602524070311,0.343791738415559,0.113903730040624,0.530303231681096,0.289104890540292,0.998788524766463,0.903836930280544,0.200620521972127,2.07899436995562,-8.96465943334253,0.873277551345755,1.5401474435601e-05,9.47871517877059,-0.748183295737976,0.625521333653021,0.855357506884605,0.638342505241024,107,0.748601988083427,2,6.73494058195161,48
"118","1",0.254617250605177,0.2683687599377,0.530177153888157,0.905808200340843,8.78505930525055,0.970824243805397,4.0608120876214,0.891666666666667,2.69803073521126,-0.795427474976109,0.93272723520511,2.74589644662137,0.599266890367449,0.66329546519332,-0.116870963209341,0.101550496173654,1.10624488271807,0.425956805054264,0.0966936972938655,0.578486025747726,0.239787495193598,0.99742329208667,0.724609773161616,0.903539779658686,1.38944803230271,-18.2857889635018,0.803469458951165,2.96411790414218e-05,7.02263483797143,-1.33633434737833,0.771342751513474,1.19472160855433,1.16940571603137,105,1.41817654244283,2,10.4368481876754,48
"119","1",0.203693800484142,0.266797234194181,0.517621079204938,0.913239960896252,9.75990318483081,7.76634596944443,4.11698708041268,0.876388888888889,5.93598998070033,-1.71434479595193,0.931548804621908,2.84903310667099,0.403640802178232,0.235141192278317,0.228996815710528,0.0989828500527955,1.02816369740061,0.200434168895874,0.0909802105561444,0.581270606334784,0.0831759247635502,0.996504506192799,0.833605768423888,0.353201550964131,1.31787962518953,-12.8168594057274,0.859450250122415,1.78401883608221e-05,7.27890176849157,-5.17611710873111,0.422715650371112,0.2926096861819,1.08523904800867,101,0.341652088216354,117,14.583266126247,48
"120","1",0.407387600968284,0.265858013542038,0.504376053137173,0.902613231662869,9.4300722885399,4.21009195375702,4.19866805097225,0.876388888888889,5.76665321208618,-1.62573060798451,0.942645883222058,3.26458797331532,0.49181014811484,0.376254365685713,-0.0900342722433316,0.0967960898796656,1.16389564601997,0.280129653951566,0.0695002601559202,0.559013525057288,0.0360348599668225,0.997759384400722,0.870605030891071,0.274740719046979,1.44853148208436,-11.0714950249045,0.932533445924725,2.03034090429446e-06,7.64812311369501,-6.17429225559051,0.598113071146799,0.529452816962238,0.862019043058071,105,0.279664826517813,121,10.7987725444441,48
"121","1",0.458311051089319,0.372463456351347,0.60452067487525,0.98947829339333,11.149152832652,11.6841089263786,4.11324880251584,0.859722222222222,11.0194225630569,-2.87393892362679,0.940996051744681,2.39397557052285,0.51237061962029,0.399013081276223,0.0868205872642197,0.111989397649587,1.39441203629111,0.315672133642403,0.0599342786007829,0.638959195001789,0.0404646851862003,0.99726965992604,0.79630347316097,0.589771971214325,0.228191876411942,-14.7139528529045,0.836574654970321,3.29729909416997e-05,2.72458235273646,-3.56615980030742,0.509575799743892,0.491141850615416,1.0336165445656,114,0.245405877326057,12,49.9041568395276,48
"122","1",0.356464150847248,0.268540972595409,0.542342751277919,0.932792031629006,9.33038903507573,0.66846113468948,4.08614594116779,0.868055555555556,2.63909549807632,-0.726591444326806,0.927837183725392,2.62073422955379,0.57785541103551,0.58871550151812,-0.0406493674877801,0.115990418643583,1.09625013186333,0.380916879129439,0.0797672605141245,0.586800314863591,0.183233069630714,0.997528213048149,0.667292258005855,1.17653768203086,1.31689599135844,-17.6108354472864,0.805813113447569,3.30426707072791e-05,6.66769456726925,-1.02704732221745,0.792469361501766,1.26445708183349,1.45348457855737,106,0.567257984284544,3,12.0917390312229,48
"123","1",0.305540700726213,0.257739856804006,0.543656582742345,0.960617879300697,10.200392584503,9.15798548575919,4.37832509542798,0.8625,6.06971583297843,-1.79798307641995,0.911329834400436,2.58205320926367,0.562128260828643,0.436179980490572,0.180982230912163,0.0643978223784723,0.91720820885297,0.38425028274793,0.0522389753586632,0.58715706345119,0.112823084001787,0.996016115413377,0.762079890200479,0.490992258157787,1.1735992347263,-16.6685099977563,0.78961996828565,3.76167789883394e-05,6.18546470123235,-5.47043155866021,0.560779832436898,0.519322838067379,1.00442479338765,101,0.304730594021859,117,16.2606398197691,48
"124","1",0.458311051089319,0.526329740991726,0.620999509395296,0.899961649828429,9.27469127023974,12.8748710080339,4.36539229977057,0.880555555555556,3.05053449625355,-1.47735007497196,0.902908210563893,2.0971568696482,0.424083199141651,0.359657730555238,-0.0725721406026702,0.065534503049092,0.955822002093864,0.221299418156704,0.0191893614370754,0.628241600677674,0.0335967183503834,0.996819331360816,0.698064324024758,0.621639180170603,0.312224394394499,-19.9559043723583,0.762119803596127,4.75463082152095e-05,-1.99955184327434,-5.20624115878039,0.559785966573907,0.584769923564196,1.43206135525086,101,0.654459791350158,107,4.49405126020135,48
"125","1",0.356464150847248,0.327038468785153,0.56216642421434,0.974252724869822,10.8603054532887,11.9189457616199,4.15530737786157,0.8625,5.23746614785303,-1.70599987339635,0.941446669990623,3.10263333497323,0.488346390528834,0.466072422972483,-0.0975189253600677,0.106251916182561,1.1466158397222,0.321794703050704,0.120846895663554,0.589008796774661,0.418624103589247,0.997131040999556,0.80987286712929,0.479156561356182,1.66420077484819,-14.7905947467334,0.796480430346827,3.38549862003772e-05,7.92337099917934,-2.4613413465765,0.741760070085934,1.17694654051533,0.696068933169506,38,0.131143807880258,120,14.938390584032,48
"126","1",0.254617250605177,0.332188707378831,0.590772252988654,0.939921810207896,9.30628208413046,6.77962191505965,4.26142127509648,0.870833333333333,5.57610755030857,-1.60298559261738,0.927920410621654,2.68817118654019,0.387379388521512,0.308096464400688,-0.0942541245947045,0.159134452593784,1.00090432557888,0.179051548857069,0.0761880675873515,0.605448750169146,0.0607566827249776,0.996258900601523,0.80585437044111,0.394796868645211,0.992116482390668,-15.8849964815584,0.810741953406916,3.0868686443043e-05,5.61359282028051,-5.98351913863814,0.559561295813167,0.61645899872052,1.03200352238804,100,0.476024529571339,117,12.3813236328557,48
"127","1",0.356464150847248,0.301460280512057,0.532639316915052,0.936555748155515,8.98147617117574,7.61947646202791,4.24148234157645,0.876388888888889,4.70422947761628,-1.47721252076693,0.92738948627351,2.95246730845084,0.445775347015679,0.281951933941067,0.206657872525949,0.090796211309002,1.00850547258379,0.252679021928187,0.111163829011617,0.573435170221385,0.0839304998963,0.995700180005355,0.828557776826619,0.397919262176483,1.35317312521863,-17.2827979943005,0.806697343343906,4.17218884591777e-05,7.26287358046007,-4.20634303886264,0.447510435665266,0.357286198224497,1.17456183330678,121,0.529498306291108,2,14.8158271963882,48
"128","1",0.509234501210355,0.334153187878204,0.617331494622114,0.937247444869805,10.6547017873592,4.42194052177744,4.26348694836461,0.866666666666667,6.48478115934609,-1.56961129687158,0.916610653897053,2.18110387045997,0.315937942780192,0.258217187018248,-0.0924118233744012,0.0843243929284577,1.03605600662557,0.166818218798614,0.0720354107417539,0.630115094278311,0.0476881447469795,0.996197957712115,0.729804820055492,0.673825957573654,1.15802272302506,-18.980241233761,0.783922441534939,4.30129504505555e-05,6.66311534659329,-4.12432975931216,0.483090102588753,0.49525973097404,1.06214137134483,104,0.304611863899356,122,21.5587015845566,48
"129","1",0.305540700726213,0.315995003728524,0.560244827906456,0.925652903728119,8.47224138757806,3.29727880575492,4.05262500866914,0.890277777777778,3.51936930872295,-1.05351844091541,0.950913768737683,3.29544509889768,0.55697291438263,0.654515027262016,-0.140635355820906,0.141035457657364,1.23948797752847,0.432053160940508,0.104173614188432,0.578991631288669,0.181417607039004,0.997397095192625,0.80618609792154,0.362094997584804,1.54417609209282,-14.7904929115757,0.820317852414557,2.27397591554146e-05,7.62242052064023,-2.8424448937024,0.730586537133889,1.14999653986232,0.973353483005367,107,0.431637136090218,2,11.3968600650682,48
"130","1",0.254617250605177,0.180290988772594,0.523352470717863,0.951579462906871,10.2984003528725,6.77506382791594,4.16538735831287,0.870833333333333,5.62045046340877,-1.61391016783975,0.934972216823628,3.02991538079389,0.47193427598974,0.330100743503194,0.172551709630366,0.127059829844649,1.01493587197152,0.263891259209576,0.0750810760944721,0.586347593585889,0.0450838819257469,0.997140871413808,0.845567536139758,0.237519375516044,1.04305311996069,-11.9601838754804,0.835521168434419,1.76216902630793e-05,5.91906612789073,-6.679169169172,0.567177337196378,0.63585946106561,0.920872736718369,98,0.199539400012325,121,23.6398986896681,48
"131","1",0.509234501210355,0.337701987847542,0.582645324587594,0.938569913756391,9.98589195786532,3.87553320045784,4.29619582738665,0.868055555555556,3.30823194728265,-0.754299864887044,0.89826907713708,1.97455146857734,0.595248241384102,0.668510490228439,-0.281706088032238,0.140265171974522,1.00876295442157,0.417138265721768,0.116452966800442,0.60067722557371,0.38261855916039,0.995864100988455,0.578955481817707,1.61540709015017,0.734309649865386,-29.2726056912881,0.721160771296324,6.60309346163269e-05,4.47272520519295,-2.49899196739803,0.721794276577564,1.02904854685821,1.63492499698972,106,0.56369179735752,110,7.21706818265298,48
"132","1",0.356464150847248,0.278389691537942,0.572802510153272,0.930345323967952,9.38890296279596,4.82531441195863,4.33562489898621,0.861111111111111,4.07381931763474,-1.28321338099889,0.897361140254574,2.54162427428128,0.486403790158473,0.332176860906512,0.162968366571972,0.0998751023346627,0.866428282145351,0.308487060201455,0.130876115679702,0.609236993692418,0.0865782481324255,0.996048408514945,0.776994358348142,0.405230795284387,1.16095138579714,-13.727454299057,0.820974228560799,1.8754541654472e-05,6.11612200621346,-5.64524368836086,0.523610352885159,0.469023367259954,1.16665785816208,101,0.178463250790722,106,16.3057312805747,48
"133","1",0.356464150847248,0.214684684090797,0.551568670040685,0.931988922639136,10.7017058887228,7.52818165882516,3.9917143483699,0.863888888888889,6.24939982822219,-1.85703565210119,0.953513506106885,3.09728820455394,0.509620593245207,0.583754806728995,-0.0450171862057142,0.0907005768300008,1.2907032399374,0.345232593365462,0.0308482164615442,0.587624540112173,0.0540071942683803,0.997133213380082,0.858709252275703,0.21940152234638,1.13370937767442,-12.5858097901625,0.853687269769984,1.4437102985375e-05,6.25458863898732,-6.40792752288616,0.650243009143033,0.948833746700381,0.864351796273798,103,0.304929590310965,121,24.7110463850709,48
"134","1",0.305540700726213,0.246825809499924,0.526586461882388,0.920274804946637,10.2780431542488,8.53272143551855,4.17555627703832,0.869444444444444,7.32254259896194,-2.01415319645249,0.93271948570407,2.78893349931404,0.258665473008222,0.169154284650488,-0.0419290884729952,0.0373104264993474,1.07104538507885,0.0966888245402493,0.0286087088494684,0.575187606948559,0.0318639838222463,0.997081965243581,0.829968801157262,0.512890076117821,1.49959432132389,-13.4623461630015,0.854500952175688,2.72987439195025e-05,7.95283907518705,-4.42864404294754,0.369258710207921,0.280790061565881,1.038343962978,103,0.280616057725469,122,23.7644984097174,48
"135","1",0.356464150847248,0.336950963146157,0.557540481275669,0.959246867621238,8.90467641644573,2.53424234571494,4.06564852486448,0.858333333333333,2.39290210017753,-0.857943974759428,0.953550527814253,3.92320246521627,0.375522056721497,0.237051018489984,-0.131316174272495,0.124882590141935,1.14832818957025,0.173999338579905,0.0727318962996496,0.559540188147766,0.182906073110012,0.997426655195219,0.910513384903338,0.175639328995867,1.80958163436014,-10.6661849004022,0.874203983311145,1.45402681722844e-05,8.68888267657519,-3.317405673677,0.519604852642229,0.488751679844958,1.13702738924097,103,0.341541637232354,118,8.18349621079013,48
"136","1",0.254617250605177,0.296486508436132,0.512177690373718,0.949201424300731,9.77971314737266,4.97000601623143,4.05859181030619,0.869444444444444,4.69742082461007,-1.42563240222964,0.946252886963133,3.33953555295852,0.379343167451999,0.230972532415372,0.056534785028697,0.026484001561112,1.25924914666638,0.170965253045815,0.00995487393399518,0.554247171847846,0.186843459927904,0.997675343975235,0.895068353851735,0.282501336614607,1.66601742723396,-10.1073050899046,0.8804571533517,2.06068295203261e-05,8.53544236371205,-3.65649912479649,0.422161542307551,0.309112439970286,1.04689505962433,122,0.253884374925523,116,13.3749447430938,48
"137","1",0.509234501210355,0.293354815342989,0.55929927539143,0.914161349521133,8.87442656832129,-0.248633577304946,4.01564139465727,0.869444444444444,4.03202950614191,-1.25336953944139,0.951475149945467,3.18272667691237,0.554969706851143,0.61771273607982,-0.0959854470595097,0.135918994414533,1.16642939486555,0.388403470798813,0.0899137406670885,0.60568233251194,0.143139871202232,0.997311128031786,0.819778198108724,0.214811929500909,1.17519620566895,-11.7701014037609,0.863383097309633,8.22895648871219e-06,6.1920273466377,-5.76120914488474,0.730995925379536,1.11547520971551,0.886177862311385,102,0.456602172060601,120,16.0149767738094,48
"138","1",0.407387600968284,0.317968711311327,0.563031272847169,0.949795733084484,10.9683675175228,11.308874190093,3.97609398339845,0.888888888888889,7.98767702673659,-2.3491507838888,0.914245201263871,2.48111934531873,0.5513965062129,0.377916351270143,0.129604835183971,0.0516464376523563,0.94553095514223,0.337441816963826,0.033432570536567,0.585616389432573,0.123469436626145,0.997423395918899,0.762968500663214,0.473995946104382,1.14255660257669,-12.0586155262034,0.890824882805029,8.25860343366335e-06,6.48623668532198,-6.12630916601616,0.509985705954558,0.342590602799934,0.894274722360919,99,0.192314236403036,115,28.2253278500274,48
"139","1",0.356464150847248,0.337147019969361,0.576853654161201,0.904196232628439,11.2613505374047,20.9690401147585,4.47258849569715,0.883333333333333,1.22368756061471,-1.21603700090694,0.894472074009715,2.81970288376268,0.520081345615317,0.423118772185476,0.0756916666314829,0.0915355204843157,0.823235114933117,0.300850743215479,0.00879262932281107,0.582901010413628,0.0700676696820287,0.999359610676461,0.800473942581451,0.282745577272737,0.914933422518078,-6.15109164529749,0.849101885608225,1.47595081675819e-05,-5.60061795344163,-6.46453970789466,0.615631806246992,0.728993912278677,1.61429053994272,100,0.663932085919496,5,9.79117537435466,48
"140","1",0.254617250605177,0.315348878404504,0.559980359971015,0.960721208705046,9.13399078942442,4.50985944302044,4.17930329518971,0.875,3.45445606901153,-0.959432548076802,0.93554998376247,2.7234163281629,0.618010220879676,0.775866595485758,-0.222572847786628,0.235528429132691,1.20699644260031,0.520087570262889,0.170351246349057,0.592921653737369,0.0583008926820205,0.996460679499096,0.692685192328447,0.776466215297819,1.14782398699375,-20.786849337732,0.775595332276137,3.39086631943727e-05,6.12499122919309,-3.59953951865384,0.731682177507603,1.10344705133525,1.2174387261794,107,0.826323168740418,2,9.72355912475521,48
"141","1",0.305540700726213,0.261964268017827,0.548836520856982,0.948954731216401,10.6850054993047,9.24532084879483,4.24541723674114,0.869444444444444,7.47212120682616,-1.96776612764593,0.905447676402812,2.49036491502739,0.183223551335536,0.120138792928554,-0.119017782416314,0.0463415518909434,0.905006841929046,0.0670049104515071,0.032080846201693,0.591241171752519,0.0255182758226933,0.995771789418539,0.797485156584406,0.497817674567176,1.07660617667574,-14.8118284353399,0.823674951759217,2.97489219512315e-05,6.26529518829089,-5.88006453027701,0.366296896056813,0.316516390230226,1.14506856302007,104,0.275031459093873,107,28.1810714077293,48
"142","1",0.356464150847248,0.330586977925371,0.595976086110268,0.950107718529783,9.23671958563735,7.47531020657616,4.07757834314598,0.8625,6.43579919326568,-1.83395821763314,0.921385265259554,2.44449324530729,0.368740098515954,0.2401480476711,-0.0948077706080002,0.0634618264133165,1.05406192605502,0.157561914559188,0.0265951870095606,0.603989925117569,0.0605388940604892,0.99694031451705,0.751098561136121,0.552307799216227,1.13902580618627,-13.0577424875073,0.874619931344053,8.64378459330431e-06,6.28175273620965,-6.61570190629891,0.555873098306644,0.508622616913482,0.96238446582745,104,0.252012241328431,121,18.3644961352088,48
"143","1",0.305540700726213,0.296717400196597,0.539061412982584,0.943514296443132,8.97346104057265,12.8281056718476,3.917911807808,0.873611111111111,3.80847555958077,-1.64897524123379,0.96884849830888,4.62827681850903,0.474589856502766,0.437088006556474,-0.172045669113395,0.175118802564983,1.22286758748655,0.313072789575811,0.160083572479789,0.5338853231898,0.0860938662426161,0.997592502642388,0.934108117252672,0.0779272105305919,1.42011244483708,-8.00905462000418,0.911285915047231,4.24352664720687e-06,7.10875526887407,-7.02880644340247,0.741481466251616,1.10801030126724,0.854247569642193,105,0.236241556462913,118,12.9294294291783,48
"144","1",0.203693800484142,0.276793544220197,0.543701161645231,0.903059767137794,9.40924358761484,6.6066515819584,4.23347548248928,0.877777777777778,5.81277599552967,-1.67078282032647,0.925016302531902,2.66417401431046,0.350401220917646,0.216088469789855,0.0964945305669657,0.0454118473798898,0.985807343843388,0.142913574654814,0.0199464970491932,0.59112230664245,0.0956542522213551,0.995975403017439,0.83715248642396,0.416280985786854,1.23754299191442,-16.7038749790375,0.812289038318222,3.77779593396767e-05,7.03048357627745,-4.2697743646152,0.425982911542748,0.355781336485619,1.32074463610249,121,0.481810583539869,117,15.8057186353255,48
"145","1",0.509234501210355,0.263212789821941,0.580669989548531,0.952025906476875,13.6216139493688,19.1502191444564,4.10305626859354,0.858333333333333,5.49893182312406,-1.93954972242032,0.93866568360271,2.68829211923378,0.625924348789199,0.646194745220193,0.044905122504217,0.0973869858209666,1.09124339798471,0.442432228089119,0.0480456175576202,0.629883950725024,0.192711703363542,0.99851215274405,0.821902366080894,0.225794563995458,0.482957393394994,-11.9574780089238,0.84069670004306,1.30694678737274e-05,2.61458728864386,-7.61607302297616,0.736761042245193,1.14402157441712,1.11527041283017,100,0.494538861789164,120,44.1512237144886,48
"146","1",0.356464150847248,0.358889461417055,0.561399738014589,0.941752056179754,7.71009094933591,-3.52357986221139,4.15533903193404,0.868055555555556,2.6953754576441,-0.576833901450722,0.939907802100848,3.17975704198412,0.392927746212784,0.226167932839669,-0.103907506336484,0.0849605095217188,1.07822263671154,0.189026366399811,0.0965144266385481,0.579401243626345,0.368816093603013,0.997102367133901,0.773970280218851,0.34706235261251,0.407745777823596,-12.5951882052894,0.845197441270864,1.80306847700581e-05,-2.35329586218009,-0.642027730731073,0.654349316258259,0.740604930062605,1.17980546608813,116,0.408199802191535,102,5.77876041599395,48
"147","1",0.152770350363106,0.153794023259319,0.434523904898945,0.800607550821588,8.80285944769505,5.31882044477233,3.94854083325058,0.905555555555556,1.55938362245164,-0.680048742981626,0.968054407424953,4.81903162168608,0.550409778561777,0.497582648554946,0.197166854214544,0.088867894575213,1.25417438198562,0.3433147805748,0.0553342759936633,0.503892134562638,0.17277211928638,0.998334355317478,0.932759601980995,0.107582223536367,2.29773973730342,-9.13178964332834,0.89880208272614,9.24193642611227e-06,9.98080196099832,-2.0958489861841,0.572533623290419,0.609810550305048,0.664794529111191,102,0.782414790950478,122,5.45177094995088,48
"148","1",0.356464150847248,0.341757928979542,0.537492461267441,0.950097882044604,8.30144976404019,1.88100396858743,4.19791379491382,0.868055555555556,3.89298854249097,-1.17049062018532,0.936282317590849,2.86986506916101,0.591889298378201,0.719303808936668,0.0171455473619381,0.210567600369745,1.14958007797374,0.524376848864681,0.145712412906483,0.577083085243527,0.113317529114416,0.996628875196749,0.776377960530614,0.508415689141664,1.46075671818542,-20.0928969494088,0.777984989414809,4.05806436310766e-05,7.33918514782899,-3.01914802389058,0.647523851309864,0.915558411402083,1.06901583673235,106,1.65746634683127,2,10.5289536749168,48
"149","1",0.356464150847248,0.157316469005165,0.452889009464455,0.857550706091701,12.2517353377339,8.45589658161935,4.16035838128316,0.883333333333333,6.46329285491035,-1.9706148154107,0.95057368729494,3.74123266909133,0.477418551186585,0.433685542016152,0.238644384580894,0.137777795584515,1.16672597383759,0.302810774697402,0.101034853810084,0.560556014481471,0.175547831279891,0.99880802286308,0.899837075530398,0.197086035473365,1.77393151718986,-8.24263115781832,0.88739262891945,1.60081580583347e-05,9.12006688739669,-2.51767395354795,0.505327295086367,0.576971070758761,0.628636990859552,8,0.103641915640722,10,36.4922704824352,48
"150","1",0.356464150847248,0.228803543729842,0.558186774426798,0.914480153600774,9.16263722201352,3.19735635999267,4.16630502573938,0.875,4.57681419917025,-1.25153857959811,0.941631652014144,3.48848162304093,0.434434742754771,0.298543632714568,0.0597057784519047,0.0835184618867863,1.05898625078617,0.2278896782019,0.0305933884138075,0.569570401960107,0.0563385228796501,0.996181101257127,0.866069668547728,0.251918334902385,1.44915098720588,-13.2498877709874,0.830307273441581,2.25175254233822e-05,7.33915219074725,-5.32380524115218,0.562368436259511,0.602126787516203,0.891147614891064,103,0.315291249127182,122,11.5030231131763,48
"151","1",0.56015795133139,0.369323344217958,0.608365156869228,0.960470109565763,10.7906425133196,12.9622065795323,4.24573906298196,0.869444444444444,4.64218724908028,-1.46507706615894,0.928547168045186,2.28228462997607,0.542674051132092,0.611332351233534,-0.21430466740241,0.134346661460773,1.18661368009161,0.377126687921864,0.133387907401807,0.615663745131562,0.0952223538335469,0.996415292118196,0.694360170416369,0.876161615464997,0.427065782853724,-21.3327239025771,0.75234378131704,4.22504410822481e-05,2.17147832571095,-5.94182700854924,0.76416904984829,1.22451920119851,1.49907704079573,103,0.490266227136151,3,15.0639739739464,48
"152","1",0.203693800484142,0.248386920828356,0.524672582692019,0.935293025531244,10.6177871615863,9.4654971229818,4.04424456267709,0.875,7.46809927026433,-1.98464530462294,0.934833818899292,2.70470267772186,0.34708924932583,0.184947493515363,0.090000106458712,0.05845960355257,1.12146517450431,0.130183871513449,0.0220649795610319,0.588695741495935,0.069917057410452,0.997103591059385,0.826882740636982,0.460778700382145,1.21090912423491,-12.2924194562047,0.894660515747004,9.09702658335939e-06,7.0915043802442,-5.48525275413292,0.430967693317271,0.276663754536463,1.11743729607655,101,0.310607817260003,107,18.7085653909888,48
"153","1",0.203693800484142,0.270294029763913,0.490593059512097,0.936432593181234,10.8848740279891,11.7705386110069,3.97401776068439,0.872222222222222,5.37930913350257,-1.78364972952687,0.951815643509044,3.57132904800359,0.347252460629397,0.248628934309679,-0.0337975138307146,0.14776958080012,1.20818340934763,0.152992034868401,0.084188325235179,0.536919654720962,0.0757192453176235,0.997528213048149,0.888388095128178,0.258759506804057,1.77591502302389,-9.70847852944646,0.914809925301526,7.59052297633566e-06,8.78238768280156,-4.63758649038542,0.430362291417521,0.331877755163502,0.783994196514997,120,0.218576005699051,122,11.8116003699483,48
"154","1",0.356464150847248,0.304538230128703,0.596400789653731,0.94805639119216,9.7253073101978,5.23319569708788,4.1954135511844,0.861111111111111,7.8816307150704,-1.9697450075596,0.931691121344758,2.58981871751593,0.364880050882528,0.230274294188988,0.0350468067689721,0.0205033414297791,1.18016396417109,0.164263353110974,0.0142856806670543,0.593959872332895,0.0597827729093155,0.996330391137086,0.809351374558876,0.595971029634044,1.19538058417457,-14.2626410261003,0.837523099771644,3.13140489337802e-05,6.75279167282075,-5.58839208601985,0.433707233581377,0.328336614007269,0.962931129932692,103,0.204925898676,107,17.1079828100601,48
"155","1",0.458311051089319,0.34796210367268,0.589460110163175,0.945816581050278,11.5064900919188,12.2730177603649,4.2327485903986,0.873611111111111,6.50860593861827,-1.86180772980122,0.921711678565148,2.32626085447649,0.34457607691718,0.235406055766204,-0.0239627728196512,0.0478865425853364,1.04482193501805,0.155987074938054,0.0324751652314594,0.609599398510789,0.0881198668270141,0.995975403017439,0.809202796221446,0.606247615980832,0.665987122748456,-18.8187347666171,0.793533913643527,5.0019036034984e-05,4.92502499433619,-4.94251253053055,0.449304561588585,0.417800452047867,1.31129704261535,122,0.526403979500973,118,14.9347119693889,48
"156","1",0.356464150847248,0.250421019632233,0.543472128183688,0.933843384463931,8.77903140962374,2.39381596699452,4.11298610475934,0.880555555555556,3.04250724800111,-0.840744212734484,0.938648128819406,3.1593436317357,0.581935223206775,0.688522052887455,-0.124313988900497,0.12910012070111,1.09392944152129,0.474909711190124,0.103993762373653,0.57716440869902,0.0870243681077393,0.996991676508805,0.744333713711206,0.55265688011715,1.50062951020927,-18.3250703076637,0.801953505395118,2.90414500014119e-05,7.37157265918496,-2.89778935026312,0.698902849840349,1.03573210043013,1.20352395239952,107,0.36205620460184,119,9.61760675005025,48
"157","1",0.356464150847248,0.228335519319609,0.560833607848081,0.941605207670222,10.3363245774877,2.80580479178562,3.99709760052043,0.866666666666667,5.28798126579224,-1.52316215242715,0.946221394922259,2.79024660259057,0.557605397180814,0.553115067880717,0.0904166860369437,0.0958801331240526,1.22830115364881,0.370583951022596,0.037002893330881,0.606064753386847,0.0541200244690921,0.997528213048149,0.829266655508638,0.258549629272289,0.839173805533817,-13.005412231258,0.842008362973457,1.49981001161162e-05,4.94189207872408,-6.81398230902459,0.652531469196031,0.891747041095319,0.973978621376222,102,0.466934715280734,121,20.244698910078,48
"158","1",0.407387600968284,0.326327762814062,0.584383970253467,0.943164709276312,11.9066811907091,13.8796399773304,4.05245490923956,0.869444444444444,8.1593225305485,-2.08573174179647,0.907007342340126,1.8746226252141,0.475526951424039,0.487637407485141,-0.0723007634285081,0.0583236446570104,1.08153652845732,0.287607792756977,0.0355916450194892,0.636054851484084,0.202430623725311,0.996675325858124,0.665179117253147,0.98185842744816,0.897627920955478,-17.8158174121339,0.827207141116286,1.62949535084167e-05,5.70926226565248,-5.48052572502416,0.612868821096246,0.733782295427925,0.845289025216635,106,0.231315713354013,121,22.2367558454356,48
"159","1",0.509234501210355,0.192723109223699,0.526993620105615,0.902618930831991,11.5294987116245,8.9551867342033,3.96439800283607,0.876388888888889,6.76556032674173,-1.85374149882494,0.935486350860452,2.34463157764085,0.562639205887324,0.739410667035571,-0.0653078672922826,0.132455472480496,1.23016982978709,0.417238218675043,0.019178725529775,0.635781585309593,0.13915668150991,0.99693030170412,0.773367383432474,0.537434990473773,1.19215012500269,-15.7088831905153,0.826315970605037,1.50874472398766e-05,6.64900354715653,-4.89678036023965,0.707166784707982,1.1285943783437,0.581796179651746,106,0.0951752185809327,101,35.2556183623817,48
"160","1",0.356464150847248,0.299019585414955,0.553082824728373,0.924249478483333,9.8852395288061,4.93655589873776,4.38382582682565,0.876388888888889,5.23009904238382,-1.46772646266429,0.902061724735585,2.5222246299756,0.366588883366759,0.210972082967196,0.196343302803282,0.0936225005070763,0.869849461898743,0.164315997006559,0.0928731318917412,0.592311464957735,0.00409279168546421,0.995095340090306,0.764475007116613,0.54362448552917,1.46105753874227,-18.4651013536389,0.783514055334633,4.53688455895868e-05,7.30852910122399,-4.15385067766183,0.444485970361535,0.372027062924315,0.896142197040501,103,0.158854501247508,108,17.7150720237437,48
"161","1",0.458311051089319,0.340061761161268,0.554335505621137,0.909060629539107,9.30622130057997,9.0711276297217,4.29743521459962,0.872222222222222,5.80853382627469,-1.7374128027841,0.931074721959699,2.76390994584597,0.55119129242547,0.506079007697866,0.10535230019709,0.183444395308055,1.05001285214558,0.357768349472125,0.0908924430520988,0.583073112841197,0.104509767317931,0.995975403017439,0.79855915113884,0.481015875941605,1.18972795308962,-17.7081718402715,0.788141638535103,3.99556815959837e-05,6.23949830517126,-5.50917285865803,0.614071388965545,0.710110901235582,1.02072791358345,101,0.367605346225359,118,11.7638688896307,48
"162","1",0.203693800484142,0.249977537213982,0.518728562410681,0.96226449326676,10.3533738503957,9.46847225466901,4.00881338575755,0.863888888888889,6.19008498799553,-1.91464549794899,0.948193822519564,3.33115469397697,0.560724722666541,0.484308105380452,0.248848699621885,0.104034410597773,1.10669569400134,0.359198198318697,0.101104483534891,0.561611908161956,0.0664871715010209,0.99705796874595,0.87528757355203,0.212566485917519,1.34606817876133,-11.5726325445421,0.867929864288314,1.47011110273024e-05,7.18558198237257,-5.7041733869531,0.557270493437525,0.587089281656177,0.89047597859002,120,0.2413021576137,115,17.244304358807,48
"163","1",0.305540700726213,0.256811554671654,0.504039731861025,0.938701877233524,10.0824756663004,7.9034620615866,4.25470116229939,0.868055555555556,4.31804487920336,-1.37839369552196,0.941272743699574,3.47517805247289,0.376850810097241,0.233030756060334,0.0790340697812661,0.0516635775360593,1.14889723473103,0.165468756144021,0.0151238189801192,0.559044556089468,0.265191706174188,0.998042081549186,0.875430050369347,0.328683686174864,1.75953936647643,-8.48367411235765,0.903250667390578,9.95422724040394e-06,8.76872198952112,-4.12767388241576,0.425983562387599,0.299035579138133,0.801569772724933,121,0.166368742468259,117,10.1906757661549,48
"164","1",0.356464150847248,0.290599642334186,0.569560254099286,0.958236337320344,9.64915013371389,8.12905332305393,4.11110196581947,0.865277777777778,6.88626942846578,-1.93947278648387,0.933579995384278,2.50241298556894,0.640742129274471,0.864466239265339,-0.130023407864469,0.100855083589507,1.171316981074,0.501791090904082,0.0427896205021858,0.592054779642248,0.0579895051040439,0.996344446649936,0.766734925572058,0.964363158437832,1.13442174793317,-21.8984534063292,0.766737937479732,4.96839285431479e-05,6.4119980041438,-3.24830548809549,0.691736641974539,1.01356202790685,1.13443426532241,101,0.267181559727508,108,21.8808423412591,48
"165","1",0.254617250605177,0.268514506860035,0.529932808666872,0.956605805539395,9.91718566023659,4.7745670391036,3.91120358879594,0.863888888888889,4.32588124786222,-1.42830985531819,0.954541286313141,3.09439075512716,0.60823372484769,0.743304568523969,0.0195781500988476,0.106720580975474,1.27934734059577,0.450072550697045,0.0532315646971216,0.597563511702936,0.0551476294184332,0.997780250522941,0.841686567983626,0.207437943238777,1.00655129533645,-11.6697592770122,0.865972771194823,8.76563395824174e-06,5.53274247534296,-6.94554933800695,0.698425636641908,1.04603235423228,0.955128964528754,102,0.706334254307855,121,21.2856474381336,48
"166","1",0.458311051089319,0.298957833628068,0.565082120527428,0.917368696451669,10.6218659598632,3.74761331143805,4.27992889850467,0.869444444444444,5.03208756363446,-1.30724904673861,0.907391430767556,2.31555653362293,0.303775589809288,0.263656832820952,-0.0970690737514251,0.0877651213033146,0.9113028753471,0.14754345424835,0.0365382193133164,0.61322934251347,0.245985221801482,0.995680900221522,0.803380087280249,0.581922063319177,0.961272362351337,-23.3438828345573,0.760188934867589,5.93800049760157e-05,6.0337611895311,-3.30655626660167,0.479432718918993,0.534631741642398,1.37834931162384,102,1.07979612389539,2,14.1227972274343,48
"167","1",0.305540700726213,0.283773537022785,0.518757925725789,0.933807653003168,9.64577784463825,6.74249296489543,4.08197286146283,0.873611111111111,5.31520840003431,-1.59869506657744,0.942337038972959,3.0740387590304,0.296347724825875,0.162406864943756,0.073544177268177,0.0297309178868617,1.1312331344689,0.0971238160995402,0.00690671139552029,0.569414009990597,0.212590242884604,0.997189793451668,0.877631418964437,0.310159476626319,1.49814831854831,-11.7841011482165,0.87765912460332,1.69093055960385e-05,8.06216937048279,-4.24673853235108,0.375848387302457,0.265556966615767,1.20620461682554,121,0.372409785609392,117,16.3201249853293,48
"168","1",0.407387600968284,0.282064946252547,0.528183596366444,0.870113144121854,9.10579798691624,7.52215713926482,4.2224522785999,0.888888888888889,5.37990766208215,-1.63344620652784,0.935968907884898,2.99225651756755,0.536811119658402,0.452359864550986,0.106979643561852,0.0518026670089748,1.12172439062079,0.345777738919099,0.0312006653937394,0.561348596234487,0.105200553597863,0.996186075316641,0.832920751496765,0.496901220990988,1.51426745362287,-17.5737000634743,0.798365945390604,4.59802072414674e-05,7.69644936393998,-3.75374257430485,0.546126397603967,0.554327084715047,1.15136202834718,121,0.891096633252018,2,15.0328505213248,48
"169","1",0.458311051089319,0.368053370835783,0.567365087934209,0.93532473000128,9.81314572115633,9.39559980094573,4.33247631783734,0.875,6.92428790607511,-1.94794630306462,0.907731117271334,2.28502136437139,0.378220285444013,0.314211191541751,-0.0459792612259497,0.0535457846858166,0.935508733752705,0.185683114993664,0.0147517702219215,0.611965757979106,0.00769031811966956,0.995318904509932,0.764458295018612,0.683864172086766,1.1172624907886,-21.8027660099576,0.753073530949965,6.22458736621621e-05,6.2867841689862,-4.36224832783242,0.505399817280587,0.543744003329944,1.01460934473747,103,0.3994291443039,2,17.0693231245545,48
"170","1",0.356464150847248,0.22499873386459,0.528527842473583,0.961642784200486,8.00016093634974,-3.70232221174484,4.12413609417382,0.869444444444444,2.86806573282706,-0.574837802223405,0.92933464079944,2.82885514444286,0.604920936012556,0.662860444691453,-0.146589634333812,0.0753571840084286,1.06351426477137,0.433341685624734,0.0530989805421017,0.578167593977342,0.0767016090050447,0.997333266143637,0.745739013462586,0.664551483875036,1.54670560491633,-19.9328015190995,0.78128307815217,3.27550616294812e-05,7.60766640499755,-1.449334220014,0.701151502512324,0.979892899027863,1.34333032013735,105,0.732320965564876,2,11.937371923569,48
"171","1",0.356464150847248,0.279313629878087,0.585505997842857,0.944791825241221,12.3251713530453,10.6356753024014,4.41141096810973,0.880555555555556,4.47826371087926,-1.23179211479617,0.896807132107044,1.93398146923614,0.552737441114596,0.62528070981779,-0.0270619960067143,0.0556848596326014,0.935693383392034,0.352273908908628,0.0223140578574646,0.628523185148052,0.227467787200073,0.995534400859092,0.708996008106163,1.00897323076637,0.306922277747065,-31.5787610141208,0.695948664297561,9.09019042468826e-05,2.65015351541784,-3.29615897342276,0.608905703780627,0.75965669821909,1.35870580922263,121,0.667755521583874,117,11.0060668181709,48
"172","1",0.509234501210355,0.347562056501657,0.608687804011179,0.938226772129035,13.0984891209301,16.8141703483887,4.19227332045835,0.8625,4.65382135838549,-1.63462058779106,0.921505970257096,1.93462831963915,0.622838725461542,0.679203591097401,0.143566947597918,0.0932443591199989,1.29929260796124,0.525458041861788,0.0899332002445802,0.637591410059441,0.168387285241391,0.997167558920282,0.681556893668105,0.773440590098215,0.357187874606589,-19.8776627322619,0.742781492094891,3.48508256634707e-05,1.42075510314199,-7.12349491847971,0.686852695629522,0.888098730170633,1.17157836709281,105,0.415350062396534,108,44.9868939893329,48
"173","1",0.356464150847248,0.26070938726812,0.483767573220589,0.901208350379793,10.015100484753,4.88461544505475,3.95994407567006,0.8875,4.02718262399286,-1.21997248475834,0.952263278686408,3.48002175156338,0.653943028791158,0.696933604265821,0.162462011698956,0.0734029691658669,1.35360075261617,0.580313220587447,0.0456881764188739,0.544717874093121,0.223673425756896,0.997528213048149,0.87406912695892,0.329797885740633,1.8329544038517,-13.5486972704775,0.831376737933343,2.81006522301019e-05,8.7110785315715,-2.79037353298959,0.628946104947959,0.764464525433591,0.835102675115828,103,0.663470812822124,2,9.70354438146567,48
"174","1",0.407387600968284,0.349477482022858,0.599643449542303,0.926001977579165,11.6530691431272,19.2768611824224,4.12045328933453,0.868055555555556,5.08760486188918,-1.90518392410414,0.931058544869125,2.85498713013758,0.553149833478558,0.467523916961722,0.115697348065896,0.0908253515371186,0.985548495184098,0.339599563878886,0.065781284470404,0.611397984651424,0.234918120927538,0.998715536041378,0.847380996660666,0.198101498403925,0.497808598512181,-9.42983943210774,0.867437993822007,1.07938643269904e-05,2.34062870950168,-8.72141059991446,0.630315989666889,0.773547922189051,0.926340390393947,2,0.375304832895084,121,18.8342657598563,48
"175","1",0.254617250605177,0.288953106909901,0.549408354779085,0.926028025816325,10.174389036983,4.03869962229437,4.24951494118325,0.868055555555556,4.57554855400189,-1.10930693472802,0.922783946147347,2.4126982139694,0.596150876544151,0.692844235475334,-0.220798568395027,0.105248086174938,1.11041454047378,0.450455034274962,0.093941292681104,0.605877603961413,0.0891839432578917,0.996650265630574,0.658555159299281,0.932024231805573,1.21969831767082,-23.7220150660106,0.741571854710654,5.13938703358192e-05,6.54465848131966,-2.84412941959965,0.688536019875629,0.962987098176281,1.32548610941963,107,0.448815063016853,120,19.734547015097,48
"176","1",0.407387600968284,0.291997173589872,0.514937274348343,0.941362460343327,9.8380850565282,6.89029648602416,4.07177874391903,0.879166666666667,5.93131253398348,-1.64247676247648,0.929498592094546,2.67939096267303,0.585367580993186,0.49754118813806,0.154233082572561,0.0795443596750193,1.18976054044201,0.465095833062811,0.0433326795648394,0.574887058864347,0.139764821809078,0.996957776576042,0.822235524521412,0.613216886481493,1.38841777413838,-17.1262468060514,0.79434183263955,5.63245271164456e-05,7.5420061665102,-3.15723499166048,0.541840542199294,0.533653437708174,1.15545847193426,122,0.580555673419205,2,19.4922172034923,48
"177","1",0.203693800484142,0.219535572772549,0.509816009494419,0.926720032495794,8.98725283728451,6.14144255039351,3.85634690062254,0.880555555555556,2.99023912646656,-1.09799261272703,0.966092753565049,4.55617905538876,0.457180053087975,0.446867887483258,-0.123314467695489,0.127073265556618,1.30230868799924,0.325098696128496,0.047414779758617,0.528990524022717,0.173844382420989,0.997589328603535,0.931504265615074,0.0894358226906455,1.92381267973121,-7.97356308479806,0.909976128561951,5.38974326843912e-06,8.9432750774603,-5.03203222338911,0.616634074068084,0.823987381607461,0.748531945437561,102,0.307766526679041,120,8.58657991894869,48
"178","1",0.509234501210355,0.32957240845528,0.624988325744871,0.918259980509492,12.5712191962344,18.6533565332111,4.44200244659099,0.866666666666667,5.73618941296504,-1.93502211322432,0.872973992361609,1.90989791672234,0.376378603149966,0.245531078379385,0.186985923196481,0.0651515512883624,0.829821814788357,0.161899788939567,0.0657707900301681,0.62544811953805,0.0147813102836896,0.995743951466074,0.716063361635978,0.680149814044594,0.284571073080197,-22.0449346964086,0.737819054327692,5.85856918794789e-05,2.19415281904508,-5.38374074202232,0.462143037361424,0.417377610672285,1.23813892333985,100,0.577969359957512,4,24.2141647066952,48
"179","1",0.203693800484142,0.34919041948237,0.551214817836693,0.953777896133361,9.98593999945031,12.8906357265952,4.22589213570946,0.881944444444444,8.08161915711493,-2.23324067902336,0.926882964944604,2.7193029410792,0.377198796933065,0.236328351589848,0.0546857017716528,0.0315533068933698,1.01217998310067,0.175948088653124,0.00883864846594947,0.58200181291296,0.116442125873737,0.995863949101172,0.816275139752004,0.523815497555156,1.23441264515643,-15.7337545351126,0.811167060508116,4.190983425507e-05,6.92360967433924,-5.08506592902555,0.444289991961855,0.388241313513418,0.953432103657683,121,0.248081272547454,117,21.1734677348242,48
"180","1",0.356464150847248,0.274915115861491,0.525826989965757,0.877956974563482,9.28435800947578,3.62816735697696,4.38228911538526,0.8875,3.83842972349063,-1.0071402418816,0.895963137082835,2.27120750236784,0.550743948480403,0.424461802594003,0.105963587762444,0.169769853283043,1.05946109858205,0.402950635994428,0.113652135750816,0.575222124052746,0.489416322703604,0.995841896158381,0.720880474128726,1.15759970330669,1.35516885922143,-26.9678903646159,0.724120179890135,7.82068713062395e-05,6.98295972680695,-1.51720666792561,0.579719033607762,0.59398526832438,1.1116405904936,102,0.605193330859286,2,17.1246453864972,48
"181","1",0.356464150847248,0.241969589810297,0.527942784399148,0.979822942707906,9.49978362294564,2.8934539923266,4.15555630383634,0.855555555555556,5.34868216370053,-1.4906421961808,0.930575707250148,3.02802044773761,0.307282302569898,0.201539662746169,0.00918562530405286,0.0323975075051978,0.969093118170753,0.118963402471256,0.014933586487557,0.573494765074205,0.0126297262615687,0.996119661049332,0.8593091501857,0.306615863572187,1.42245040035571,-14.269566397153,0.838303343848999,2.65542700735332e-05,7.56884699785002,-4.49432525955349,0.413692175160297,0.364621283618229,1.08929543126402,102,0.280398319047289,106,22.9229418274091,48
"182","1",0.509234501210355,0.347540799822264,0.556305452849487,0.878981850950056,11.5193758034019,18.637934625713,4.48884866593032,0.888888888888889,5.77529341089383,-1.936255526858,0.808937846693539,1.7294666583216,0.353604730803504,0.170123188423811,0.0738882780568239,0.0595899017206821,0.663029470783964,0.163011315084641,0.0683732179714449,0.577997424140022,0.407391578890604,0.998592508516937,0.5971975238087,1.18871175457976,0.632466125714233,-8.66177417965346,0.810250170909585,3.10642385041938e-05,-3.87348163950036,-5.92344410014663,0.348005708596631,0.16487780576681,1.59495706611157,101,0.719572286565176,106,14.439588868021,48
"183","1",0.662004851573461,0.661650140949316,0.66349435327871,0.942885343928101,10.3039839311462,7.47313079614249,4.18625430831835,0.852777777777778,4.71534821563772,-1.50151206925342,0.930439072163724,2.91191418537785,0.337548779513946,0.206948970329583,-0.190739262828509,0.361157408951498,1.06900960441253,0.234938044300587,0.322186632611981,0.674194761011243,0.0353315592974121,0.99681104077634,0.830375289742522,0.164925249770745,0.919893007111138,-13.0802575927346,0.824392936152363,1.24029042769758e-05,5.05267695520901,-7.31274502823577,0.627948455735294,0.693312434172928,0.919612713001132,102,0.438181346936114,121,17.487281482823,48
"184","1",0.407387600968284,0.246398505982495,0.499697045064538,0.936514096210832,9.71234029472233,4.45693688079319,4.08129247658722,0.873611111111111,5.72557252112644,-1.66607401233428,0.938917181583415,3.17541297958448,0.208821111906924,0.116453513097049,-0.0819476726154346,0.0277429731324967,1.03716166428728,0.0666084330871326,0.0224827941895338,0.560814924132698,0.0553573717056813,0.997155357794468,0.879358209406105,0.278722119929284,1.49581937450063,-11.014559973482,0.903676247038925,8.08839246756083e-06,7.97997005923258,-4.94425686896724,0.360162502237228,0.253903309325759,1.04658334513747,121,0.26113991389523,117,13.8204429395176,48
"185","1",0.254617250605177,0.212152484246519,0.480566930294791,0.867897437975814,10.0458202048105,6.41012909927785,3.96841900474932,0.883333333333333,2.44668241313164,-0.828034523641425,0.958892418148415,4.38532141685019,0.429530690547642,0.386243442266942,-0.0857753286382571,0.0820857328857462,1.14100852300744,0.24123604266714,0.040395722343545,0.537998229779669,0.100231812604144,0.998235423720976,0.939110662392552,0.13431669352239,2.01732145626268,-9.29263280497236,0.88918581255801,1.43058482606592e-05,9.27136019547449,-3.16798573726094,0.538019775758814,0.576940251851319,0.803367186918162,102,0.120599677346021,107,8.211342408391,48
"186","1",0.254617250605177,0.261919824792546,0.532084820641482,0.94201425874687,9.50886205383604,8.25836530558868,4.13537566172837,0.872222222222222,4.83731837997176,-1.41603833680574,0.936135506080536,3.09581738545032,0.534398581404903,0.444776284552264,0.0697587957184101,0.06271083315165,1.19169539712842,0.362174750101125,0.0211600501632882,0.569337463050585,0.198329941597552,0.996588708166634,0.840770776847485,0.489411811208379,1.4781509658819,-16.2757728938345,0.802279752640096,4.33974572864638e-05,7.52121288015099,-4.11369184751228,0.573260474498946,0.607317567071004,1.0253230084484,101,0.562008196537264,2,13.7700378571719,48
